ecg_data_columns
55.635
80.233
131.471
205.428
286.463
358.567
406.506
418.257
391.262
328.177
234.855
122.671
4.862
-106.762
-199.412
-264.585
-301.207
-310.426
-298.782
-276.103
-249.116
-224.967
-208.098
-197.397
-190.502
-182.497
-168.86
-149.452
-126.686
-105.114
-88.434
-77.39
-71.061
-67.663
-66.149
-66.345
-67.947
-70.291
-72.478
-73.869
-74.318
-73.926
-72.756
-70.863
-68.424
-65.896
-63.862
-62.612
-62.129
-62.251
-62.792
-63.63
-64.669
-65.693
-66.382
-66.535
-66.073
-64.998
-63.382
-61.268
-58.66
-55.598
-52.171
-48.469
-44.595
-40.633
-36.617
-32.578
-28.548
-24.556
-20.642
-16.829
-13.113
-9.488
-5.944
-2.474
0.925
4.257
7.545
10.816
14.102
17.44
20.855
24.36
27.966
31.677
35.494
39.413
43.417
47.477
51.561
55.638
59.685
63.69
67.645
71.536
75.351
79.071
82.683
86.184
89.578
92.865
96.043
99.109
102.071
104.95
107.792
110.634
113.49
116.357
119.214
122.041
124.823
127.542
130.164
132.63
134.878
136.85
138.505
139.803
140.689
141.092
140.904
140.029
138.406
136.005
132.809
128.808
123.987
118.332
111.873
104.676
96.818
88.378
79.423
70.017
60.256
50.261
40.188
30.198
20.412
10.922
1.818
-6.817
-14.887
-22.294
-28.985
-34.95
-40.182
-44.69
-48.474
-51.532
-53.902
-55.652
-56.871
-57.665
-58.112
-58.261
-58.172
-57.899
-57.509
-57.079
-56.652
-56.246
-55.877
-55.553
-55.288
-55.099
-54.976
-54.885
-54.786
-54.627
-54.375
-54.02
-53.545
-52.937
-52.183
-51.26
-50.165
-48.912
-47.508
-45.963
-44.286
-42.482
-40.568
-38.576
-36.535
-34.48
-32.437
-30.419
-28.442
-26.519
-24.661
-22.878
-21.174
-19.545
-17.991
-16.516
-15.12
-13.805
-12.571
-11.411
-10.321
-9.294
-8.326
-7.413
-6.553
-5.741
-4.976
-4.256
-3.581
-2.951
-2.366
-1.822
-1.318
-0.852
-0.42
-0.021
0.346
0.685
0.996
1.28
1.537
1.769
1.975
2.154
2.309
2.437
2.54
2.616
2.665
2.688
2.682
2.648
2.586
2.494
2.372
2.22
2.039
1.827
1.585
1.313
1.011
0.681
0.321
-0.068
-0.487
-0.933
-1.408
-1.911
-2.442
-3
-3.584
-4.194
-4.829
-5.488
-6.169
-6.873
-7.597
-8.34
-9.102
-9.881
-10.677
-11.488
-12.314
-13.154
-14.008
-14.874
-15.752
-16.642
-17.544
-18.458
-19.382
-20.318
-21.264
-22.222
-23.189
-24.167
-25.155
-26.152
-27.157
-28.17
-29.191
-30.218
-31.25
-32.287
-33.327
-34.37
-35.413
-36.457
-37.5
-38.54
-39.575
-40.605
-41.627
-42.639
-43.639
-44.624
-45.594
-46.544
-47.474
-48.381
-49.262
-50.116
-50.939
-51.729
-52.485
-53.203
-53.882
-54.519
-55.114
-55.665
-56.171
-56.63
-57.042
-57.408
-57.726
-57.999
-58.224
-58.404
-58.539
-58.631
-58.682
-58.694
-58.668
-58.608
-58.519
-58.404
-58.269
-58.118
-57.957
-57.791
-57.626
-57.468
-57.32
-57.186
-57.069
-56.975
-56.907
-56.871
-56.871
-56.912
-56.998
-57.134
-57.325
-57.571
-57.87
-58.221
-58.622
-59.074
-59.584
-60.155
-60.787
-61.484
-62.244
-63.066
-63.943
-64.858
-65.786
-66.703
-67.587
-68.42
-69.195
-69.895
-70.502
-70.999
-71.363
-71.578
-71.635
-71.52
-71.218
-70.736
-70.113
-69.405
-68.696
-68.053
-67.517
-67.129
-66.94
-67.004
-67.348
-67.987
-68.938
-70.237
-71.979
-74.245
-77.025
-80.159
-83.456
-86.712
-89.52
-91.495
-92.295
-91.431
-89.315
-86.779
-83.761
-80.797
-77.389
-72.24
-66.748
-61.766
-58.825
-61.283
-69.314
-81.821
-95.525
-102.464
-94.685
-67.137
-18.88
45.391
117.918
193.157
267.508
336.623
395.107
434.071
444.073
422.006
370.397
296.332
209.618
117.674
26.908
-54.644
-119.67
-163.253
-184.637
-189.954
-188.229
-185.356
-183.612
-180.823
-172.926
-159.115
-140.878
-120.521
-100.447
-81.39
-63.195
-46.23
-31.093
-18.161
-7.521
0.965
7.343
11.628
13.959
14.936
15.653
16.826
18.673
21.245
24.465
28.256
32.569
37.051
41.039
44.132
46.23
47.409
47.926
47.973
47.652
47.173
46.842
46.895
47.495
48.705
50.47
52.753
55.538
58.796
62.476
66.509
70.8
75.249
79.788
84.372
88.971
93.563
98.118
102.608
107.007
111.312
115.532
119.67
123.731
127.714
131.626
135.488
139.338
143.216
147.15
151.156
155.242
159.41
163.665
168.011
172.445
176.965
181.561
186.22
190.933
195.682
200.448
205.211
209.943
214.607
219.18
223.64
227.979
232.199
236.295
240.255
244.062
247.685
251.104
254.308
257.29
260.052
262.598
264.93
267.069
269.054
270.907
272.638
274.231
275.638
276.827
277.781
278.488
278.949
279.154
279.08
278.701
277.986
276.891
275.369
273.349
270.734
267.455
263.465
258.752
253.357
247.312
240.638
233.373
225.556
217.239
208.49
199.387
190.012
180.475
170.906
161.452
152.275
143.517
135.305
127.733
120.849
114.696
109.31
104.701
100.873
97.814
95.492
93.857
92.855
92.397
92.378
92.696
93.231
93.867
94.528
95.148
95.68
96.099
96.356
96.4
96.24
95.903
95.31
94.381
93.196
91.79
90.204
88.694
86.74
83.838
80.797
77.878
76.529
78.467
81.796
85.25
86.944
84.294
79.572
74.7
70.984
70.591
71.93
73.391
74.611
74.611
73.945
73.33
72.625
71.927
71.196
70.293
69.319
68.355
67.379
66.392
65.41
64.439
63.479
62.534
61.594
60.646
59.699
58.762
57.832
56.908
55.989
55.071
54.156
53.244
52.335
51.426
50.515
49.602
48.684
47.761
46.829
45.887
44.93
43.958
42.966
41.954
40.919
39.858
38.771
37.656
36.511
35.335
34.127
32.888
31.617
30.314
28.98
27.616
26.224
24.805
23.36
21.892
20.403
18.896
17.373
15.838
14.293
12.743
11.191
9.64
8.095
6.558
5.035
3.528
2.041
0.578
-0.857
-2.263
-3.634
-4.969
-6.266
-7.521
-8.732
-9.898
-11.018
-12.089
-13.112
-14.086
-15.01
-15.883
-16.705
-17.477
-18.198
-18.868
-19.488
-20.058
-20.578
-21.051
-21.478
-21.857
-22.192
-22.483
-22.732
-22.94
-23.108
-23.238
-23.329
-23.385
-23.405
-23.392
-23.346
-23.268
-23.159
-23.023
-22.861
-22.675
-22.468
-22.241
-21.997
-21.738
-21.467
-21.183
-20.888
-20.581
-20.265
-19.941
-19.613
-19.282
-18.952
-18.626
-18.306
-17.997
-17.702
-17.419
-17.15
-16.893
-16.656
-16.449
-16.279
-16.151
-16.072
-16.042
-16.062
-16.128
-16.228
-16.339
-16.44
-16.511
-16.537
-16.516
-16.436
-16.284
-16.043
-15.689
-15.211
-14.605
-13.866
-12.99
-11.996
-10.921
-9.831
-8.821
-7.968
-7.33
-6.963
-6.924
-7.284
-8.111
-9.457
-11.349
-13.827
-16.959
-20.77
-25.209
-30.077
-35.048
-39.823
-44.14
-47.693
-50.135
-51.261
-51.056
-49.901
-48.465
-47.141
-46.277
-46.376
-47.725
-50.438
-53.709
-55.203
-53.34
-47.659
-38.584
-27.974
-14.408
6.156
36.558
79.151
131.081
185.543
238.466
286.154
326.181
356.948
372.778
368.869
343.71
299.054
240.636
172.688
98.873
22.815
-50.208
-109.952
-149.388
-166.365
-164.646
-155.103
-145.142
-137.257
-130.677
-121.01
-106.82
-89.765
-71.536
-54.246
-38.819
-25.104
-13.48
-4.356
2.299
6.674
8.905
9.111
7.43
4.183
0.214
-3.471
-6.331
-8.185
-8.948
-8.613
-7.193
-4.782
-1.805
1.145
3.746
5.913
7.662
9.095
10.274
11.22
12.074
13.056
14.286
15.796
17.56
19.491
21.538
23.692
25.919
28.174
30.42
32.622
34.766
36.87
38.94
40.98
42.997
44.989
46.964
48.939
50.925
52.933
54.968
57.031
59.123
61.249
63.414
65.62
67.871
70.166
72.503
74.883
77.302
79.76
82.249
84.761
87.288
89.821
92.351
94.87
97.366
99.829
102.247
104.607
106.896
109.1
111.202
113.188
115.041
116.746
118.288
119.652
120.824
121.791
122.54
123.059
123.338
123.365
123.133
122.632
121.856
120.801
119.46
117.832
115.916
113.71
111.218
108.442
105.388
102.062
98.471
94.626
90.538
86.219
81.684
76.949
72.028
66.941
61.706
56.343
50.871
45.31
39.682
34.006
28.303
22.595
16.899
11.237
5.627
0.086
-5.367
-10.717
-15.947
-21.044
-25.994
-30.785
-35.405
-39.846
-44.099
-48.156
-52.011
-55.66
-59.1
-62.328
-65.344
-68.149
-70.745
-73.134
-75.321
-77.312
-79.111
-80.727
-82.165
-83.436
-84.546
-85.504
-86.321
-87.004
-87.564
-88.01
-88.35
-88.593
-88.748
-88.822
-88.824
-88.76
-88.637
-88.462
-88.24
-87.978
-87.681
-87.352
-86.998
-86.621
-86.226
-85.814
-85.389
-84.953
-84.507
-84.052
-83.59
-83.122
-82.646
-82.163
-81.673
-81.176
-80.67
-80.154
-79.629
-79.092
-78.544
-77.983
-77.409
-76.823
-76.223
-75.612
-74.989
-74.355
-73.712
-73.06
-72.402
-71.738
-71.071
-70.4
-69.729
-69.058
-68.388
-67.721
-67.059
-66.403
-65.754
-65.113
-64.481
-63.86
-63.251
-62.655
-62.074
-61.509
-60.961
-60.432
-59.925
-59.439
-58.976
-58.538
-58.124
-57.737
-57.375
-57.039
-56.728
-56.442
-56.181
-55.943
-55.728
-55.535
-55.362
-55.21
-55.076
-54.96
-54.861
-54.778
-54.711
-54.659
-54.622
-54.598
-54.587
-54.589
-54.604
-54.629
-54.665
-54.708
-54.759
-54.815
-54.874
-54.934
-54.993
-55.049
-55.099
-55.143
-55.178
-55.202
-55.214
-55.212
-55.195
-55.161
-55.109
-55.037
-54.943
-54.828
-54.689
-54.525
-54.335
-54.118
-53.873
-53.598
-53.292
-52.953
-52.58
-52.173
-51.731
-51.252
-50.738
-50.189
-49.606
-48.99
-48.342
-47.664
-46.959
-46.23
-45.477
-44.705
-43.917
-43.116
-42.305
-41.488
-40.669
-39.852
-39.044
-38.25
-37.474
-36.723
-36.002
-35.318
-34.675
-34.08
-33.535
-33.046
-32.616
-32.249
-31.95
-31.725
-31.578
-31.511
-31.528
-31.63
-31.819
-32.095
-32.454
-32.891
-33.404
-33.992
-34.661
-35.415
-36.251
-37.17
-38.166
-39.229
-40.351
-41.515
-42.695
-43.866
-45.005
-46.092
-47.117
-48.066
-48.918
-49.652
-50.235
-50.637
-50.846
-50.845
-50.624
-50.198
-49.587
-48.832
-48.003
-47.153
-46.331
-45.605
-45.03
-44.664
-44.577
-44.815
-45.451
-46.594
-48.288
-50.503
-53.122
-55.908
-58.598
-60.97
-62.724
-63.496
-63.058
-61.378
-58.745
-55.674
-52.696
-50.384
-49.216
-49.617
-51.995
-55.583
-59.005
-61.63
-61.962
-59.781
-55.339
-45.061
-26.233
3.884
48.039
102.049
160.273
217.753
268.565
313.333
355.612
395.366
431.792
456.959
457.334
425.399
357.482
258.983
146.597
35.88
-57.742
-123.29
-161.279
-176.14
-176.684
-173.181
-169.288
-165.309
-159.093
-147.373
-130.709
-111.602
-92.269
-74.784
-59.657
-46.538
-35.602
-26.829
-19.806
-14.111
-9.504
-5.98
-3.625
-2.359
-1.584
-0.57
0.927
2.855
5.135
7.7
10.568
13.729
16.843
19.428
21.279
22.421
22.991
23.193
23.136
22.871
22.558
22.424
22.623
23.236
24.28
25.719
27.545
29.772
32.38
35.319
38.519
41.892
45.368
48.894
52.434
55.961
59.46
62.916
66.326
69.693
73.019
76.3
79.531
82.702
85.81
88.86
91.868
94.86
97.858
100.885
103.954
107.071
110.239
113.458
116.72
120.012
123.319
126.631
129.938
133.232
136.503
139.741
142.929
146.052
149.093
152.035
154.859
157.548
160.084
162.451
164.636
166.624
168.404
169.962
171.285
172.362
173.179
173.725
173.99
173.964
173.637
173.004
172.058
170.795
169.215
167.317
165.103
162.575
159.74
156.603
153.174
149.461
145.476
141.232
136.741
132.019
127.082
121.947
116.633
111.157
105.54
99.802
93.964
88.045
82.067
76.05
70.015
63.981
57.969
51.998
46.087
40.255
34.52
28.898
23.405
18.055
12.862
7.837
2.99
-1.67
-6.135
-10.4
-14.459
-18.31
-21.95
-25.377
-28.593
-31.598
-34.395
-36.987
-39.379
-41.577
-43.585
-45.411
-47.062
-48.545
-49.869
-51.042
-52.071
-52.967
-53.737
-54.39
-54.936
-55.384
-55.742
-56.019
-56.224
-56.363
-56.444
-56.475
-56.461
-56.408
-56.322
-56.207
-56.067
-55.907
-55.73
-55.538
-55.334
-55.12
-54.898
-54.667
-54.43
-54.185
-53.935
-53.678
-53.414
-53.145
-52.868
-52.585
-52.296
-52
-51.697
-51.387
-51.07
-50.747
-50.418
-50.084
-49.744
-49.401
-49.056
-48.71
-48.366
-48.024
-47.688
-47.358
-47.039
-46.732
-46.44
-46.165
-45.911
-45.68
-45.476
-45.301
-45.159
-45.051
-44.982
-44.954
-44.969
-45.029
-45.137
-45.292
-45.498
-45.755
-46.064
-46.425
-46.839
-47.304
-47.821
-48.388
-49.004
-49.665
-50.371
-51.118
-51.902
-52.722
-53.574
-54.453
-55.357
-56.282
-57.223
-58.177
-59.14
-60.106
-61.072
-62.033
-62.985
-63.924
-64.844
-65.744
-66.618
-67.463
-68.276
-69.054
-69.793
-70.49
-71.144
-71.751
-72.311
-72.821
-73.283
-73.694
-74.057
-74.372
-74.64
-74.864
-75.045
-75.185
-75.287
-75.352
-75.383
-75.382
-75.353
-75.298
-75.221
-75.125
-75.013
-74.89
-74.759
-74.623
-74.484
-74.347
-74.214
-74.088
-73.972
-73.869
-73.782
-73.714
-73.668
-73.644
-73.646
-73.674
-73.727
-73.806
-73.909
-74.034
-74.177
-74.338
-74.514
-74.702
-74.9
-75.104
-75.317
-75.537
-75.764
-75.995
-76.225
-76.449
-76.665
-76.868
-77.052
-77.209
-77.33
-77.41
-77.446
-77.44
-77.392
-77.296
-77.142
-76.92
-76.624
-76.261
-75.832
-75.341
-74.792
-74.193
-73.568
-72.954
-72.379
-71.86
-71.403
-70.998
-70.64
-70.335
-70.09
-69.917
-69.835
-69.83
-69.876
-69.963
-70.06
-70.15
-70.23
-70.202
-69.903
-69.273
-68.346
-67.211
-66.05
-64.896
-63.54
-61.982
-60.52
-59.197
-57.824
-56.216
-53.748
-50.616
-48.398
-47.209
-46.132
-43.673
-36.702
-25.778
-15.239
-9.236
-12.615
-25.482
-42.736
-59.954
-72.593
-79.421
-82.916
-84.261
-84.514
-83.86
-81.201
-76.964
-72.12
-67.253
-63.353
-61.073
-60.672
-62.708
-66.973
-72.213
-77.29
-81.268
-84.123
-86.994
-89.744
-91.301
-90.166
-84.138
-74.334
-63.704
-54.883
-51.52
-53.632
-59.122
-66.112
-69.419
-64.183
-45.537
-8.07
48.371
121.067
204.699
290.673
372.951
444.807
498.093
527.449
527.438
496.805
440.899
365.367
275.96
178.691
77.584
-20.451
-104.224
-166.117
-202.752
-216.908
-218.754
-215.658
-210.563
-203.205
-189.983
-170.147
-145.902
-120.243
-96.568
-76.605
-61
-49.981
-42.993
-39.429
-38.567
-39.346
-41.042
-42.917
-43.862
-43.25
-40.894
-36.771
-31.278
-24.981
-18.275
-11.699
-5.995
-1.554
1.48
3.089
3.54
3.152
2.159
0.888
-0.299
-1.21
-1.731
-1.799
-1.446
-0.671
0.565
2.248
4.354
6.875
9.776
13.027
16.589
20.372
24.288
28.265
32.248
36.21
40.142
44.031
47.869
51.655
55.384
59.053
62.663
66.204
69.68
73.1
76.485
79.869
83.284
86.752
90.29
93.906
97.6
101.37
105.209
109.104
113.042
117.013
121.007
125.017
129.032
133.04
137.024
140.966
144.846
148.645
152.343
155.921
159.361
162.643
165.751
168.67
171.385
173.88
176.139
178.146
179.886
181.343
182.505
183.357
183.889
184.09
183.953
183.472
182.643
181.463
179.931
178.049
175.821
173.25
170.344
167.111
163.562
159.707
155.561
151.138
146.454
141.528
136.377
131.022
125.483
119.782
113.942
107.983
101.929
95.803
89.627
83.425
77.219
71.031
64.884
58.8
52.799
46.901
41.125
35.488
30.006
24.694
19.566
14.633
9.906
5.393
1.103
-2.96
-6.791
-10.386
-13.744
-16.865
-19.751
-22.402
-24.823
-27.018
-28.992
-30.752
-32.305
-33.657
-34.818
-35.796
-36.6
-37.24
-37.726
-38.069
-38.278
-38.366
-38.341
-38.216
-38
-37.704
-37.337
-36.909
-36.43
-35.907
-35.349
-34.763
-34.157
-33.535
-32.905
-32.27
-31.636
-31.006
-30.383
-29.771
-29.172
-28.588
-28.02
-27.471
-26.94
-26.428
-25.937
-25.467
-25.017
-24.588
-24.18
-23.791
-23.423
-23.075
-22.745
-22.432
-22.135
-21.852
-21.583
-21.331
-21.09
-20.859
-20.642
-20.445
-20.27
-20.124
-20.001
-19.894
-19.809
-19.758
-19.721
-19.684
-19.636
-19.561
-19.475
-19.411
-19.352
-19.268
-19.244
-19.374
-19.604
-19.939
-20.399
-20.776
-21.63
-23.503
-25.619
-27.745
-28.457
-26.051
-22.413
-18.796
-17.071
-19.808
-24.73
-29.908
-34.019
-34.88
-34.046
-33.096
-32.379
-32.854
-33.957
-34.965
-36.011
-36.998
-37.97
-39.068
-40.191
-41.259
-42.291
-43.29
-44.24
-45.141
-45.992
-46.792
-47.552
-48.285
-48.98
-49.627
-50.228
-50.779
-51.277
-51.724
-52.116
-52.449
-52.725
-52.942
-53.103
-53.206
-53.253
-53.244
-53.181
-53.065
-52.898
-52.682
-52.42
-52.114
-51.766
-51.379
-50.956
-50.5
-50.014
-49.501
-48.964
-48.406
-47.831
-47.241
-46.638
-46.027
-45.408
-44.784
-44.157
-43.527
-42.897
-42.266
-41.636
-41.006
-40.378
-39.751
-39.124
-38.497
-37.871
-37.243
-36.614
-35.982
-35.346
-34.706
-34.061
-33.411
-32.755
-32.093
-31.425
-30.754
-30.08
-29.405
-28.732
-28.063
-27.4
-26.746
-26.105
-25.476
-24.864
-24.27
-23.698
-23.153
-22.641
-22.166
-21.733
-21.348
-21.014
-20.738
-20.521
-20.365
-20.27
-20.238
-20.272
-20.385
-20.584
-20.874
-21.259
-21.741
-22.315
-22.978
-23.719
-24.516
-25.349
-26.198
-27.048
-27.89
-28.716
-29.509
-30.246
-30.896
-31.431
-31.832
-32.084
-32.175
-32.106
-31.891
-31.572
-31.212
-30.87
-30.6
-30.456
-30.491
-30.773
-31.376
-32.35
-33.757
-35.69
-38.197
-41.295
-44.92
-48.836
-52.785
-56.544
-59.821
-62.284
-63.686
-63.83
-62.796
-61.139
-59.412
-58.003
-57.419
-58.18
-60.664
-65.217
-70.925
-75.33
-76.41
-72.993
-65.769
-56.657
-45.276
-27.931
1.337
46.882
108.727
181.802
258.077
332.89
403.41
466.275
517.326
547.007
545.652
510.495
443.894
353.516
249.803
140.551
32.58
-64.408
-140.348
-189.061
-208.393
-204.648
-191.187
-176.34
-164.762
-157.195
-147.196
-132.421
-113.548
-90.741
-68.395
-49.354
-34.245
-24.321
-18.682
-15.94
-15.631
-17.201
-20.317
-24.612
-29.071
-32.562
-34.501
-34.775
-33.529
-30.957
-27.22
-22.551
-17.474
-12.681
-8.566
-5.238
-2.618
-0.505
1.258
2.787
4.282
6.008
8.113
10.655
13.617
16.903
20.447
24.217
28.171
32.259
36.445
40.689
44.959
49.237
53.492
57.7
61.844
65.911
69.896
73.801
77.632
81.404
85.131
88.821
92.479
96.102
99.692
103.255
106.801
110.345
113.896
117.456
121.029
124.615
128.209
131.798
135.358
138.861
142.288
145.628
148.877
152.039
155.118
158.113
161.027
163.853
166.589
169.234
171.779
174.22
176.565
178.829
181.049
183.269
185.505
187.756
190.005
192.212
194.345
196.363
198.211
199.845
201.227
202.323
203.125
203.612
203.743
203.459
202.672
201.287
199.253
196.547
193.166
189.135
184.473
179.22
173.447
167.213
160.566
153.535
146.116
138.325
130.218
121.875
113.418
104.968
96.605
88.391
80.375
72.587
65.062
57.813
50.816
44.064
37.563
31.349
25.494
20.042
14.994
10.325
5.969
1.872
-1.994
-5.658
-9.142
-12.466
-15.648
-18.688
-21.56
-24.255
-26.777
-29.157
-31.454
-33.703
-35.91
-38.066
-40.138
-42.103
-43.954
-45.677
-47.258
-48.688
-49.959
-51.08
-52.076
-52.96
-53.737
-54.402
-54.935
-55.328
-55.588
-55.727
-55.765
-55.718
-55.597
-55.415
-55.192
-54.939
-54.667
-54.378
-54.067
-53.731
-53.374
-53
-52.616
-52.228
-51.835
-51.439
-51.041
-50.641
-50.241
-49.839
-49.434
-49.026
-48.618
-48.211
-47.813
-47.427
-47.057
-46.707
-46.38
-46.08
-45.81
-45.572
-45.369
-45.2
-45.07
-44.978
-44.927
-44.918
-44.953
-45.03
-45.152
-45.318
-45.528
-45.782
-46.078
-46.417
-46.796
-47.214
-47.67
-48.161
-48.684
-49.238
-49.818
-50.422
-51.046
-51.686
-52.338
-52.997
-53.658
-54.317
-54.969
-55.609
-56.233
-56.837
-57.417
-57.97
-58.492
-58.98
-59.433
-59.847
-60.22
-60.552
-60.84
-61.084
-61.283
-61.437
-61.547
-61.613
-61.636
-61.616
-61.555
-61.455
-61.317
-61.142
-60.934
-60.695
-60.427
-60.133
-59.817
-59.481
-59.129
-58.764
-58.39
-58.009
-57.625
-57.241
-56.859
-56.482
-56.113
-55.753
-55.404
-55.068
-54.747
-54.442
-54.152
-53.879
-53.624
-53.385
-53.164
-52.959
-52.771
-52.599
-52.443
-52.302
-52.175
-52.062
-51.962
-51.873
-51.794
-51.725
-51.662
-51.606
-51.554
-51.505
-51.458
-51.411
-51.363
-51.312
-51.259
-51.2
-51.136
-51.064
-50.983
-50.893
-50.793
-50.681
-50.557
-50.422
-50.273
-50.11
-49.934
-49.743
-49.538
-49.317
-49.079
-48.824
-48.552
-48.262
-47.955
-47.629
-47.285
-46.924
-46.546
-46.152
-45.742
-45.317
-44.877
-44.425
-43.96
-43.486
-43.004
-42.515
-42.022
-41.53
-41.043
-40.567
-40.104
-39.661
-39.243
-38.854
-38.5
-38.184
-37.908
-37.675
-37.488
-37.353
-37.274
-37.255
-37.3
-37.412
-37.595
-37.853
-38.185
-38.588
-39.059
-39.595
-40.197
-40.873
-41.628
-42.463
-43.38
-44.379
-45.455
-46.599
-47.795
-49.013
-50.225
-51.404
-52.527
-53.582
-54.552
-55.412
-56.14
-56.704
-57.078
-57.251
-57.201
-56.913
-56.406
-55.707
-54.875
-53.994
-53.126
-52.334
-51.69
-51.248
-51.069
-51.216
-51.717
-52.645
-54.11
-56.154
-58.793
-61.974
-65.462
-68.991
-72.302
-74.957
-76.474
-76.582
-75.095
-72.025
-67.93
-63.526
-59.503
-57.023
-56.616
-57.357
-58.371
-58.645
-58.415
-60.902
-67.804
-77.149
-82.433
-72.261
-38.161
21.222
100.454
188.633
276.705
360.141
435.884
500.363
546.694
564.543
545.984
489.199
397.791
282.692
158.759
39.319
-62.025
-136.185
-181.79
-200.367
-198.983
-187.501
-172.244
-159.164
-150.992
-145.847
-141.83
-135.315
-123.19
-105.782
-84.896
-64.052
-46.646
-33.865
-25.373
-19.761
-15.907
-13.591
-12.747
-13.212
-14.355
-15.188
-15.105
-14.109
-12.5
-10.63
-8.905
-7.472
-6.349
-5.86
-6.239
-7.337
-8.844
-10.272
-10.974
-10.804
-10.044
-8.724
-6.846
-4.515
-1.763
1.158
3.779
6.025
8.152
10.283
12.52
14.913
17.358
19.888
22.675
25.726
28.918
32.164
35.361
38.466
41.528
44.553
47.512
50.41
53.273
56.136
59.045
62.026
65.08
68.214
71.427
74.722
78.103
81.563
85.096
88.697
92.356
96.067
99.821
103.608
107.417
111.234
115.042
118.827
122.57
126.253
129.861
133.374
136.773
140.039
143.152
146.093
148.845
151.388
153.703
155.771
157.575
159.095
160.315
161.221
161.797
162.033
161.916
161.439
160.593
159.374
157.78
155.808
153.46
150.738
147.648
144.198
140.395
136.251
131.781
126.998
121.92
116.567
110.957
105.115
99.062
92.823
86.424
79.89
73.248
66.526
59.749
52.946
46.145
39.372
32.654
26.018
19.488
13.089
6.844
0.775
-5.099
-10.759
-16.188
-21.37
-26.294
-30.947
-35.319
-39.403
-43.194
-46.687
-49.881
-52.775
-55.372
-57.675
-59.688
-61.419
-62.876
-64.069
-65.007
-65.699
-66.159
-66.398
-66.43
-66.273
-65.938
-65.437
-64.791
-64.021
-63.146
-62.187
-61.153
-60.05
-58.898
-57.721
-56.511
-55.263
-53.979
-52.648
-51.296
-49.963
-48.639
-47.3
-46.034
-44.942
-43.971
-43.129
-42.436
-41.685
-41.442
-42.257
-43.345
-44.467
-44.18
-40.753
-36.099
-31.487
-28.813
-30.679
-34.776
-39.147
-42.45
-42.467
-40.776
-38.977
-37.422
-37.086
-37.397
-37.623
-37.897
-38.125
-38.353
-38.725
-39.142
-39.526
-39.899
-40.267
-40.619
-40.956
-41.282
-41.601
-41.926
-42.272
-42.632
-42.999
-43.375
-43.76
-44.153
-44.555
-44.964
-45.379
-45.801
-46.23
-46.668
-47.113
-47.568
-48.03
-48.502
-48.981
-49.469
-49.966
-50.471
-50.983
-51.503
-52.029
-52.56
-53.097
-53.636
-54.178
-54.719
-55.259
-55.796
-56.329
-56.855
-57.374
-57.884
-58.384
-58.872
-59.348
-59.81
-60.256
-60.686
-61.099
-61.492
-61.864
-62.215
-62.542
-62.844
-63.121
-63.372
-63.595
-63.789
-63.954
-64.089
-64.194
-64.268
-64.312
-64.326
-64.309
-64.263
-64.189
-64.087
-63.959
-63.806
-63.63
-63.433
-63.214
-62.977
-62.723
-62.453
-62.17
-61.875
-61.569
-61.254
-60.931
-60.603
-60.271
-59.936
-59.599
-59.261
-58.924
-58.588
-58.254
-57.922
-57.592
-57.263
-56.936
-56.61
-56.283
-55.955
-55.625
-55.289
-54.948
-54.599
-54.241
-53.87
-53.486
-53.086
-52.669
-52.231
-51.77
-51.286
-50.775
-50.238
-49.675
-49.087
-48.474
-47.837
-47.177
-46.497
-45.798
-45.081
-44.345
-43.59
-42.819
-42.033
-41.238
-40.435
-39.627
-38.818
-38.01
-37.208
-36.417
-35.636
-34.864
-34.101
-33.353
-32.628
-31.938
-31.293
-30.698
-30.155
-29.67
-29.246
-28.883
-28.572
-28.294
-28.033
-27.777
-27.52
-27.258
-26.978
-26.663
-26.288
-25.827
-25.265
-24.592
-23.805
-22.904
-21.898
-20.81
-19.672
-18.543
-17.48
-16.543
-15.796
-15.29
-15.06
-15.175
-15.737
-16.808
-18.413
-20.482
-22.812
-25.222
-27.597
-29.761
-31.477
-32.54
-32.792
-32.375
-31.817
-31.592
-31.939
-33.157
-35.586
-39.375
-44.71
-50.728
-55.126
-56.644
-54.861
-50.211
-44.763
-37.225
-23.28
0.925
39.194
89.364
144.196
197.582
244.382
284.786
321.738
354.291
379.009
388.406
374.213
334.4
270.169
186.111
92.045
-3.57
-90.336
-155.805
-195.572
-209.607
-203.603
-189.952
-175.43
-162.192
-149.763
-133.75
-113.215
-90.374
-67.492
-47.5
-31.732
-19.984
-11.939
-6.919
-4.078
-2.773
-2.318
-1.866
-0.907
0.909
3.949
7.517
10.744
13.975
16.963
20.653
26.452
32.304
36.922
38.582
34.952
28.609
21.795
16.128
13.997
13.959
14.528
15.412
15.68
15.902
16.776
18.121
20
22.338
24.938
27.821
30.962
34.238
37.58
40.96
44.349
47.72
51.043
54.278
57.401
60.423
63.351
66.183
68.916
71.55
74.103
76.613
79.12
81.654
84.229
86.856
89.537
92.276
95.073
97.919
100.801
103.704
106.618
109.535
112.45
115.352
118.228
121.059
123.829
126.521
129.12
131.61
133.973
136.196
138.263
140.162
141.884
143.415
144.744
145.856
146.739
147.381
147.771
147.9
147.757
147.335
146.627
145.631
144.344
142.765
140.895
138.735
136.291
133.568
130.571
127.31
123.795
120.035
116.043
111.833
107.42
102.819
98.048
93.124
88.066
82.894
77.627
72.287
66.894
61.468
56.031
50.605
45.209
39.865
34.592
29.41
24.336
19.389
14.584
9.936
5.458
1.162
-2.942
-6.843
-10.536
-14.012
-17.269
-20.302
-23.108
-25.688
-28.042
-30.17
-32.077
-33.767
-35.243
-36.513
-37.583
-38.461
-39.156
-39.678
-40.036
-40.24
-40.302
-40.233
-40.044
-39.746
-39.352
-38.873
-38.319
-37.702
-37.031
-36.316
-35.568
-34.793
-34
-33.197
-32.39
-31.585
-30.788
-30.003
-29.235
-28.487
-27.762
-27.063
-26.392
-25.751
-25.14
-24.56
-24.012
-23.495
-23.008
-22.551
-22.123
-21.722
-21.346
-20.995
-20.665
-20.355
-20.062
-19.786
-19.523
-19.273
-19.034
-18.804
-18.583
-18.369
-18.163
-17.965
-17.773
-17.589
-17.412
-17.243
-17.082
-16.931
-16.79
-16.66
-16.542
-16.437
-16.346
-16.269
-16.209
-16.165
-16.139
-16.132
-16.145
-16.179
-16.234
-16.312
-16.414
-16.539
-16.69
-16.865
-17.066
-17.292
-17.543
-17.819
-18.118
-18.44
-18.784
-19.148
-19.531
-19.931
-20.346
-20.774
-21.213
-21.662
-22.118
-22.58
-23.044
-23.51
-23.975
-24.438
-24.896
-25.348
-25.793
-26.228
-26.652
-27.062
-27.458
-27.837
-28.199
-28.54
-28.86
-29.158
-29.431
-29.68
-29.902
-30.097
-30.265
-30.404
-30.514
-30.594
-30.644
-30.663
-30.652
-30.611
-30.539
-30.435
-30.301
-30.135
-29.937
-29.707
-29.444
-29.148
-28.818
-28.452
-28.052
-27.617
-27.146
-26.638
-26.095
-25.515
-24.9
-24.25
-23.566
-22.848
-22.097
-21.316
-20.505
-19.666
-18.802
-17.915
-17.008
-16.086
-15.153
-14.213
-13.269
-12.327
-11.392
-10.467
-9.557
-8.665
-7.794
-6.948
-6.135
-5.36
-4.627
-3.942
-3.31
-2.734
-2.222
-1.773
-1.389
-1.068
-0.81
-0.62
-0.508
-0.478
-0.533
-0.676
-0.907
-1.221
-1.615
-2.078
-2.588
-3.128
-3.684
-4.242
-4.802
-5.356
-5.887
-6.379
-6.805
-7.146
-7.393
-7.529
-7.542
-7.442
-7.248
-6.998
-6.755
-6.553
-6.419
-6.4
-6.531
-6.864
-7.453
-8.318
-9.506
-11.11
-13.173
-15.696
-18.576
-21.55
-24.368
-26.844
-28.711
-29.669
-29.519
-28.2
-26.034
-23.693
-21.745
-20.687
-21.085
-23.457
-28.193
-34.727
-41.124
-45.299
-45.937
-43.613
-40.021
-34.959
-25.185
-4.983
30.147
80.573
141.693
205.71
267.459
323.64
371.521
409.028
429.781
426.684
397.481
342.015
264.785
175.749
83.049
-3.771
-73.705
-123.037
-151.09
-161.528
-164.398
-165.097
-165.185
-164.054
-157.355
-143.844
-125.603
-104.974
-84.596
-65.773
-48.514
-33.152
-20.448
-10.855
-4.292
-0.435
0.956
0.133
-2.635
-6.66
-10.629
-13.627
-15.315
-15.561
-14.423
-12.01
-8.382
-3.933
0.551
4.562
7.888
10.48
12.517
14.138
15.391
16.455
17.61
19.03
20.802
22.931
25.314
27.886
30.625
33.491
36.447
39.461
42.501
45.547
48.595
51.639
54.674
57.697
60.702
63.692
66.674
69.661
72.673
75.721
78.813
81.954
85.143
88.381
91.674
95.024
98.434
101.905
105.435
109.024
112.673
116.375
120.124
123.909
127.717
131.535
135.351
139.153
142.927
146.658
150.331
153.931
157.44
160.842
164.118
167.25
170.217
173.001
175.583
177.946
180.071
181.942
183.542
184.856
185.87
186.57
186.945
186.984
186.677
186.016
184.996
183.613
181.862
179.743
177.258
174.409
171.201
167.642
163.738
159.503
154.947
150.084
144.932
139.507
133.827
127.912
121.783
115.463
108.974
102.34
95.585
88.734
81.811
74.842
67.852
60.864
53.905
46.996
40.162
33.424
26.804
20.323
13.999
7.851
1.895
-3.854
-9.381
-14.675
-19.725
-24.522
-29.06
-33.333
-37.336
-41.069
-44.531
-47.722
-50.644
-53.303
-55.701
-57.846
-59.745
-61.406
-62.838
-64.052
-65.058
-65.868
-66.495
-66.952
-67.25
-67.403
-67.426
-67.33
-67.129
-66.838
-66.468
-66.033
-65.544
-65.015
-64.457
-63.88
-63.294
-62.71
-62.136
-61.579
-61.047
-60.546
-60.082
-59.659
-59.283
-58.955
-58.68
-58.46
-58.295
-58.188
-58.137
-58.144
-58.207
-58.324
-58.495
-58.717
-58.987
-59.304
-59.664
-60.064
-60.501
-60.971
-61.472
-61.998
-62.548
-63.116
-63.7
-64.295
-64.9
-65.511
-66.124
-66.739
-67.352
-67.962
-68.567
-69.165
-69.755
-70.336
-70.907
-71.467
-72.016
-72.553
-73.079
-73.594
-74.098
-74.591
-75.075
-75.549
-76.014
-76.472
-76.922
-77.366
-77.805
-78.238
-78.669
-79.096
-79.521
-79.945
-80.369
-80.793
-81.218
-81.643
-82.068
-82.494
-82.92
-83.345
-83.769
-84.19
-84.609
-85.023
-85.433
-85.835
-86.23
-86.616
-86.99
-87.352
-87.7
-88.033
-88.349
-88.646
-88.924
-89.182
-89.419
-89.634
-89.826
-89.995
-90.14
-90.262
-90.36
-90.435
-90.487
-90.517
-90.526
-90.515
-90.485
-90.439
-90.378
-90.305
-90.221
-90.129
-90.033
-89.933
-89.834
-89.738
-89.647
-89.565
-89.493
-89.435
-89.392
-89.366
-89.359
-89.374
-89.41
-89.469
-89.551
-89.655
-89.783
-89.934
-90.105
-90.296
-90.505
-90.729
-90.966
-91.214
-91.47
-91.728
-91.986
-92.239
-92.485
-92.717
-92.933
-93.127
-93.295
-93.433
-93.538
-93.605
-93.631
-93.614
-93.552
-93.445
-93.293
-93.095
-92.854
-92.569
-92.243
-91.88
-91.479
-91.042
-90.573
-90.075
-89.552
-89.011
-88.457
-87.897
-87.336
-86.781
-86.239
-85.717
-85.216
-84.738
-84.29
-83.877
-83.514
-83.212
-82.98
-82.821
-82.74
-82.736
-82.809
-82.949
-83.136
-83.347
-83.566
-83.776
-83.971
-84.145
-84.278
-84.347
-84.323
-84.178
-83.904
-83.493
-82.934
-82.236
-81.42
-80.535
-79.661
-78.868
-78.207
-77.736
-77.509
-77.587
-78.042
-78.925
-80.281
-82.195
-84.71
-87.823
-91.456
-95.402
-99.402
-103.23
-106.601
-109.14
-110.541
-110.619
-109.469
-107.51
-105.171
-102.865
-101.059
-100.331
-101.416
-104.157
-106.994
-108.108
-105.637
-99.891
-93.906
-88.654
-82.724
-70.836
-43.847
3.032
69.286
149.823
234.713
315.836
387.949
445.315
483.44
498.128
484.427
442.6
375.63
286.694
184.292
76.427
-27.542
-114.283
-177.751
-216.631
-234.254
-240.86
-242.114
-239.301
-232.012
-216.943
-193.976
-166.293
-137.416
-111.053
-89.443
-73.329
-62.771
-57.22
-55.881
-57.575
-60.878
-64.603
-67.559
-68.753
-67.784
-64.55
-59.249
-52.529
-45.129
-37.735
-31.132
-25.868
-22.115
-19.918
-19.116
-19.366
-20.347
-21.698
-23
-24
-24.582
-24.668
-24.262
-23.364
-21.924
-19.948
-17.472
-14.508
-11.088
-7.248
-3.021
1.505
6.233
11.085
15.986
20.895
25.794
30.659
35.477
40.239
44.926
49.531
54.051
58.476
62.807
67.051
71.223
75.353
79.475
83.609
87.775
91.979
96.223
100.507
104.823
109.16
113.508
117.857
122.197
126.523
130.825
135.093
139.313
143.47
147.545
151.523
155.387
159.12
162.707
166.132
169.382
172.443
175.304
177.952
180.372
182.551
184.476
186.134
187.514
188.604
189.393
189.873
190.037
189.879
189.394
188.579
187.432
185.954
184.146
182.011
179.553
176.778
173.693
170.307
166.629
162.672
158.448
153.971
149.256
144.32
139.179
133.853
128.359
122.717
116.946
111.068
105.101
99.066
92.984
86.874
80.758
74.653
68.58
62.558
56.604
50.735
44.967
39.317
33.797
28.421
23.202
18.15
13.275
8.587
4.093
-0.201
-4.287
-8.162
-11.823
-15.266
-18.49
-21.495
-24.282
-26.851
-29.206
-31.348
-33.283
-35.014
-36.545
-37.884
-39.035
-40.004
-40.799
-41.426
-41.892
-42.205
-42.373
-42.403
-42.302
-42.078
-41.74
-41.293
-40.746
-40.107
-39.381
-38.576
-37.7
-36.759
-35.76
-34.709
-33.613
-32.478
-31.311
-30.116
-28.899
-27.666
-26.421
-25.17
-23.916
-22.664
-21.418
-20.182
-18.96
-17.755
-16.57
-15.409
-14.274
-13.169
-12.095
-11.055
-10.051
-9.087
-8.163
-7.283
-6.447
-5.659
-4.919
-4.229
-3.59
-3.005
-2.472
-1.993
-1.569
-1.199
-0.884
-0.624
-0.418
-0.267
-0.169
-0.125
-0.134
-0.195
-0.308
-0.47
-0.683
-0.944
-1.253
-1.608
-2.009
-2.453
-2.941
-3.47
-4.038
-4.645
-5.287
-5.964
-6.671
-7.407
-8.17
-8.956
-9.763
-10.589
-11.43
-12.285
-13.15
-14.023
-14.902
-15.784
-16.667
-17.548
-18.425
-19.295
-20.158
-21.009
-21.848
-22.672
-23.479
-24.268
-25.036
-25.781
-26.501
-27.195
-27.862
-28.498
-29.103
-29.677
-30.217
-30.724
-31.197
-31.636
-32.041
-32.413
-32.752
-33.06
-33.337
-33.584
-33.804
-33.996
-34.163
-34.307
-34.429
-34.531
-34.614
-34.681
-34.734
-34.773
-34.8
-34.818
-34.827
-34.829
-34.825
-34.817
-34.805
-34.793
-34.78
-34.768
-34.759
-34.754
-34.752
-34.756
-34.764
-34.778
-34.796
-34.818
-34.843
-34.869
-34.895
-34.92
-34.941
-34.957
-34.963
-34.959
-34.941
-34.906
-34.852
-34.775
-34.673
-34.544
-34.384
-34.193
-33.967
-33.707
-33.41
-33.076
-32.704
-32.293
-31.842
-31.352
-30.822
-30.253
-29.645
-28.999
-28.316
-27.598
-26.851
-26.078
-25.284
-24.474
-23.655
-22.832
-22.012
-21.202
-20.405
-19.626
-18.871
-18.145
-17.456
-16.81
-16.213
-15.669
-15.182
-14.757
-14.397
-14.101
-13.865
-13.687
-13.563
-13.498
-13.501
-13.58
-13.738
-13.979
-14.302
-14.703
-15.18
-15.719
-16.297
-16.892
-17.481
-18.048
-18.586
-19.08
-19.508
-19.845
-20.047
-20.082
-19.926
-19.557
-18.969
-18.171
-17.179
-16.028
-14.773
-13.469
-12.184
-10.979
-9.902
-9.007
-8.333
-7.969
-8.069
-8.714
-9.923
-11.637
-13.63
-15.665
-17.576
-19.028
-19.565
-18.96
-17.104
-14.127
-10.763
-7.809
-5.876
-5.947
-8.474
-12.602
-17.503
-22.064
-25.857
-31.068
-38.903
-47.597
-51.828
-42.079
-10.878
43.289
116.27
199.042
284.115
367.326
444.273
510.246
556.895
573.666
555.936
504.204
424.066
326.715
221.701
117.86
25.49
-48.617
-100.8
-131.263
-146.717
-154.784
-159.559
-162.156
-160.01
-150.14
-133.189
-111.654
-88.604
-66.976
-47.797
-31.375
-18.384
-8.838
-2.344
1.616
3.879
5.048
5.367
5.386
6.025
7.833
10.954
15.239
20.186
25.395
30.668
35.638
39.745
42.644
44.208
44.492
43.808
42.473
40.707
38.767
36.93
35.377
34.232
33.578
33.427
33.775
34.628
35.962
37.742
39.951
42.555
45.501
48.718
52.107
55.579
59.079
62.575
66.044
69.469
72.826
76.095
79.279
82.385
85.418
88.378
91.262
94.074
96.832
99.573
102.34
105.161
108.059
111.038
114.102
117.253
120.491
123.806
127.185
130.607
134.056
137.53
141.024
144.534
148.05
151.549
155.006
158.401
161.709
164.919
168.02
170.992
173.815
176.483
178.983
181.315
183.478
185.438
187.165
188.633
189.811
190.689
191.258
191.501
191.407
190.959
190.14
188.948
187.382
185.425
183.069
180.299
177.094
173.482
169.492
165.143
160.465
155.471
150.174
144.602
138.784
132.742
126.504
120.091
113.518
106.827
100.051
93.23
86.407
79.592
72.794
66.031
59.317
52.673
46.124
39.679
33.35
27.158
21.121
15.259
9.592
4.127
-1.133
-6.181
-11.016
-15.626
-19.995
-24.121
-27.996
-31.618
-34.988
-38.102
-40.958
-43.564
-45.928
-48.059
-49.967
-51.658
-53.141
-54.424
-55.517
-56.432
-57.18
-57.773
-58.221
-58.537
-58.733
-58.82
-58.811
-58.717
-58.546
-58.309
-58.016
-57.675
-57.297
-56.89
-56.463
-56.022
-55.577
-55.133
-54.697
-54.274
-53.868
-53.484
-53.124
-52.791
-52.487
-52.213
-51.97
-51.758
-51.579
-51.43
-51.313
-51.225
-51.167
-51.136
-51.133
-51.156
-51.203
-51.274
-51.366
-51.479
-51.611
-51.759
-51.923
-52.101
-52.289
-52.487
-52.692
-52.901
-53.114
-53.327
-53.54
-53.749
-53.954
-54.153
-54.344
-54.528
-54.702
-54.867
-55.022
-55.168
-55.303
-55.428
-55.543
-55.649
-55.745
-55.833
-55.911
-55.981
-56.043
-56.097
-56.142
-56.181
-56.212
-56.236
-56.254
-56.267
-56.276
-56.281
-56.284
-56.287
-56.289
-56.294
-56.302
-56.315
-56.334
-56.362
-56.398
-56.446
-56.505
-56.577
-56.663
-56.764
-56.879
-57.011
-57.158
-57.322
-57.501
-57.697
-57.91
-58.138
-58.383
-58.645
-58.923
-59.218
-59.53
-59.859
-60.204
-60.565
-60.943
-61.335
-61.742
-62.163
-62.596
-63.041
-63.495
-63.959
-64.429
-64.905
-65.385
-65.867
-66.348
-66.828
-67.304
-67.775
-68.24
-68.696
-69.143
-69.58
-70.007
-70.423
-70.828
-71.22
-71.6
-71.967
-72.319
-72.657
-72.979
-73.284
-73.571
-73.84
-74.09
-74.322
-74.534
-74.728
-74.903
-75.058
-75.196
-75.315
-75.417
-75.502
-75.573
-75.63
-75.675
-75.711
-75.738
-75.76
-75.776
-75.789
-75.798
-75.804
-75.807
-75.805
-75.797
-75.783
-75.76
-75.73
-75.691
-75.644
-75.589
-75.528
-75.461
-75.391
-75.315
-75.232
-75.141
-75.037
-74.92
-74.783
-74.623
-74.438
-74.223
-73.978
-73.704
-73.398
-73.057
-72.676
-72.246
-71.763
-71.228
-70.64
-70.005
-69.332
-68.635
-67.937
-67.266
-66.636
-66.06
-65.538
-65.064
-64.632
-64.234
-63.861
-63.511
-63.183
-62.87
-62.574
-62.291
-62.003
-61.683
-61.285
-60.752
-60.056
-59.18
-58.129
-56.929
-55.609
-54.211
-52.795
-51.404
-50.07
-48.817
-47.645
-46.557
-45.577
-44.734
-44.086
-43.701
-43.614
-43.839
-44.373
-45.181
-46.223
-47.436
-48.726
-50.02
-51.276
-52.488
-53.699
-54.953
-56.269
-57.649
-59.081
-60.563
-62.116
-63.769
-65.55
-67.471
-69.585
-72.032
-74.915
-78.244
-81.917
-85.65
-89.114
-92.085
-94.252
-95.186
-94.647
-92.595
-89.236
-85.154
-81.032
-77.413
-74.963
-74.578
-76.042
-77.921
-78.88
-77.084
-72.848
-69.192
-66.247
-61.736
-49.925
-21.463
27.653
95.559
176.428
260.237
339.568
410.363
467.694
507.407
525.28
516.037
479.57
418.545
335.882
239.833
138.03
39.26
-43.939
-106.007
-145.414
-165.189
-175.45
-181.989
-186.824
-189.735
-186.251
-175.027
-157.944
-137.237
-116.142
-96.261
-77.545
-60.235
-44.8
-31.689
-21.14
-12.94
-6.692
-2.262
0.416
1.675
2.261
3.051
4.51
6.669
9.354
12.412
15.763
19.274
22.55
25.045
26.478
26.846
26.331
25.24
23.782
22.092
20.394
18.959
17.995
17.651
17.973
18.911
20.434
22.521
25.14
28.251
31.787
35.655
39.764
44.018
48.351
52.726
57.108
61.468
65.777
70.002
74.13
78.173
82.134
86.015
89.817
93.532
97.175
100.777
104.369
107.985
111.649
115.367
119.148
122.997
126.915
130.9
134.94
139.016
143.113
147.22
151.326
155.419
159.485
163.501
167.448
171.304
175.048
178.661
182.12
185.406
188.497
191.376
194.027
196.433
198.578
200.444
202.016
203.276
204.211
204.806
205.049
204.927
204.432
203.555
202.291
200.637
198.593
196.157
193.334
190.128
186.546
182.596
178.29
173.639
168.66
163.368
157.781
151.919
145.804
139.457
132.904
126.169
119.278
112.256
105.131
97.93
90.679
83.407
76.14
68.905
61.728
54.634
47.649
40.796
34.096
27.571
21.24
15.121
9.229
3.579
-1.817
-6.947
-11.804
-16.379
-20.669
-24.668
-28.376
-31.793
-34.921
-37.762
-40.322
-42.607
-44.625
-46.384
-47.895
-49.168
-50.216
-51.051
-51.685
-52.133
-52.409
-52.527
-52.5
-52.344
-52.072
-51.697
-51.233
-50.693
-50.088
-49.431
-48.732
-48.001
-47.249
-46.483
-45.711
-44.941
-44.178
-43.428
-42.695
-41.983
-41.295
-40.633
-39.998
-39.392
-38.814
-38.265
-37.742
-37.246
-36.773
-36.323
-35.893
-35.48
-35.083
-34.699
-34.326
-33.962
-33.606
-33.255
-32.908
-32.566
-32.227
-31.89
-31.557
-31.228
-30.903
-30.584
-30.272
-29.969
-29.676
-29.397
-29.133
-28.888
-28.663
-28.462
-28.287
-28.142
-28.03
-27.954
-27.916
-27.919
-27.967
-28.06
-28.202
-28.395
-28.638
-28.934
-29.282
-29.683
-30.136
-30.639
-31.191
-31.79
-32.433
-33.117
-33.838
-34.593
-35.377
-36.186
-37.016
-37.861
-38.716
-39.577
-40.438
-41.294
-42.14
-42.972
-43.784
-44.571
-45.33
-46.055
-46.744
-47.391
-47.994
-48.55
-49.057
-49.512
-49.914
-50.262
-50.556
-50.796
-50.983
-51.119
-51.205
-51.245
-51.241
-51.196
-51.115
-51.001
-50.859
-50.694
-50.511
-50.313
-50.107
-49.897
-49.688
-49.485
-49.294
-49.118
-48.962
-48.83
-48.727
-48.657
-48.623
-48.628
-48.676
-48.769
-48.909
-49.098
-49.338
-49.629
-49.971
-50.365
-50.809
-51.303
-51.845
-52.432
-53.062
-53.732
-54.438
-55.177
-55.946
-56.741
-57.556
-58.389
-59.234
-60.087
-60.944
-61.799
-62.649
-63.488
-64.311
-65.115
-65.895
-66.646
-67.365
-68.046
-68.685
-69.28
-69.825
-70.317
-70.753
-71.128
-71.441
-71.688
-71.869
-71.979
-72.019
-71.987
-71.882
-71.704
-71.454
-71.13
-70.734
-70.267
-69.73
-69.125
-68.454
-67.719
-66.924
-66.073
-65.17
-64.222
-63.232
-62.207
-61.152
-60.073
-58.977
-57.866
-56.748
-55.626
-54.505
-53.394
-52.299
-51.226
-50.183
-49.174
-48.204
-47.281
-46.408
-45.587
-44.816
-44.099
-43.439
-42.848
-42.333
-41.899
-41.547
-41.279
-41.091
-40.978
-40.93
-40.925
-40.942
-40.962
-40.968
-40.954
-40.909
-40.816
-40.651
-40.386
-39.994
-39.466
-38.794
-37.966
-36.988
-35.881
-34.686
-33.471
-32.292
-31.199
-30.243
-29.48
-28.979
-28.811
-29.024
-29.671
-30.834
-32.547
-34.804
-37.516
-40.447
-43.347
-46.026
-48.244
-49.711
-50.212
-49.627
-48.125
-46.246
-44.494
-43.15
-42.52
-43.009
-44.96
-48.538
-52.563
-54.591
-52.789
-46.159
-35.881
-24.422
-11.392
5.85
31.79
71.518
125.378
189.82
259.642
327.733
387.879
434.496
461.115
463.121
439.245
392.099
327.471
250.955
167.836
82.714
1.454
-66.669
-115.27
-142.045
-150.006
-148.601
-144.862
-141.727
-138.926
-132.786
-121.893
-107.617
-92.046
-77.456
-64.427
-52.485
-41.347
-30.941
-21.76
-14.074
-7.669
-2.651
0.726
2.366
2.23
0.787
-0.97
-2.48
-3.569
-4.016
-3.724
-2.634
-0.638
2.003
4.7
7.127
9.194
10.895
12.365
13.683
14.837
15.937
17.203
18.763
20.665
22.891
25.338
27.941
30.682
33.527
36.43
39.348
42.238
45.068
47.84
50.553
53.207
55.803
58.339
60.819
63.258
65.675
68.086
70.503
72.931
75.375
77.839
80.331
82.856
85.421
88.029
90.679
93.375
96.115
98.9
101.727
104.589
107.478
110.386
113.304
116.225
119.14
122.038
124.91
127.743
130.526
133.245
135.885
138.432
140.868
143.179
145.347
147.358
149.194
150.843
152.288
153.516
154.515
155.27
155.772
156.008
155.97
155.65
155.04
154.135
152.93
151.424
149.615
147.503
145.092
142.385
139.386
136.104
132.547
128.724
124.648
120.33
115.785
111.03
106.08
100.954
95.67
90.249
84.71
79.074
73.362
67.595
61.795
55.982
50.176
44.399
38.67
33.008
27.431
21.958
16.605
11.387
6.318
1.412
-3.319
-7.865
-12.217
-16.366
-20.306
-24.031
-27.537
-30.822
-33.884
-36.722
-39.338
-41.734
-43.913
-45.879
-47.638
-49.195
-50.559
-51.735
-52.732
-53.56
-54.226
-54.741
-55.114
-55.355
-55.474
-55.482
-55.387
-55.2
-54.93
-54.586
-54.177
-53.71
-53.194
-52.636
-52.043
-51.421
-50.777
-50.116
-49.443
-48.763
-48.08
-47.397
-46.717
-46.043
-45.377
-44.721
-44.077
-43.446
-42.829
-42.227
-41.641
-41.069
-40.513
-39.973
-39.447
-38.936
-38.438
-37.954
-37.483
-37.025
-36.579
-36.146
-35.726
-35.318
-34.923
-34.542
-34.174
-33.821
-33.482
-33.159
-32.853
-32.565
-32.296
-32.046
-31.818
-31.612
-31.429
-31.271
-31.137
-31.03
-30.949
-30.895
-30.87
-30.874
-30.907
-30.97
-31.064
-31.189
-31.346
-31.535
-31.755
-32.008
-32.292
-32.607
-32.953
-33.329
-33.735
-34.17
-34.632
-35.12
-35.634
-36.172
-36.732
-37.313
-37.912
-38.529
-39.161
-39.807
-40.465
-41.134
-41.812
-42.498
-43.19
-43.888
-44.589
-45.292
-45.996
-46.699
-47.4
-48.098
-48.792
-49.48
-50.161
-50.834
-51.498
-52.151
-52.793
-53.423
-54.039
-54.641
-55.227
-55.797
-56.35
-56.886
-57.404
-57.903
-58.383
-58.844
-59.283
-59.702
-60.098
-60.471
-60.82
-61.144
-61.441
-61.712
-61.955
-62.168
-62.351
-62.503
-62.622
-62.707
-62.758
-62.772
-62.749
-62.687
-62.587
-62.447
-62.265
-62.042
-61.777
-61.47
-61.12
-60.727
-60.291
-59.811
-59.29
-58.727
-58.124
-57.482
-56.803
-56.09
-55.348
-54.579
-53.789
-52.981
-52.159
-51.33
-50.497
-49.663
-48.831
-48.005
-47.19
-46.392
-45.617
-44.871
-44.158
-43.483
-42.852
-42.271
-41.742
-41.264
-40.838
-40.466
-40.153
-39.912
-39.751
-39.672
-39.677
-39.767
-39.935
-40.177
-40.48
-40.821
-41.181
-41.544
-41.9
-42.25
-42.585
-42.892
-43.153
-43.338
-43.429
-43.42
-43.302
-43.069
-42.739
-42.334
-41.901
-41.507
-41.189
-40.981
-40.923
-41.042
-41.384
-42.001
-42.93
-44.236
-46.001
-48.246
-50.931
-53.93
-56.979
-59.811
-62.206
-63.902
-64.616
-64.221
-62.805
-60.713
-58.575
-57.013
-56.383
-56.955
-59.031
-62.61
-67.227
-71.972
-75.368
-75.84
-72.224
-63.497
-48.64
-26.96
1.734
36.911
77.143
119.902
162.116
201.01
234.266
261.719
284.716
303.366
315.797
316.256
297.379
254.877
189.593
109.787
27.645
-45.043
-99.998
-135.961
-156.496
-167.942
-176.056
-182.81
-187.323
-186.575
-178.655
-164.201
-145.322
-125.136
-105.574
-87.32
-70.9
-56.622
-44.918
-36.142
-30.071
-26.079
-23.681
-22.334
-21.358
-20.258
-18.53
-15.851
-12.313
-8.185
-3.725
0.71
4.698
7.992
10.414
11.906
12.62
12.758
12.513
12.113
11.805
11.748
12.056
12.814
14.039
15.733
17.893
20.49
23.468
26.778
30.354
34.111
37.976
41.883
45.773
49.618
53.398
57.095
60.705
64.223
67.641
70.96
74.18
77.294
80.306
83.227
86.074
88.882
91.685
94.505
97.362
100.267
103.225
106.241
109.313
112.431
115.586
118.772
121.981
125.212
128.459
131.712
134.96
138.189
141.383
144.526
147.604
150.599
153.494
156.274
158.923
161.43
163.78
165.958
167.951
169.742
171.316
172.661
173.761
174.604
175.177
175.469
175.472
175.177
174.579
173.672
172.453
170.92
169.073
166.913
164.443
161.667
158.591
155.223
151.573
147.651
143.469
139.043
134.387
129.518
124.455
119.216
113.822
108.292
102.648
96.91
91.101
85.243
79.355
73.461
67.581
61.736
55.946
50.23
44.606
39.091
33.703
28.454
23.36
18.433
13.684
9.123
4.759
0.599
-3.352
-7.089
-10.608
-13.909
-16.991
-19.856
-22.506
-24.944
-27.176
-29.208
-31.046
-32.698
-34.173
-35.479
-36.625
-37.623
-38.481
-39.21
-39.821
-40.323
-40.727
-41.042
-41.279
-41.446
-41.553
-41.607
-41.617
-41.59
-41.533
-41.453
-41.355
-41.245
-41.127
-41.006
-40.885
-40.767
-40.654
-40.549
-40.452
-40.364
-40.284
-40.214
-40.151
-40.096
-40.045
-39.998
-39.953
-39.907
-39.858
-39.805
-39.746
-39.678
-39.599
-39.508
-39.404
-39.286
-39.152
-39.003
-38.837
-38.654
-38.455
-38.24
-38.01
-37.764
-37.505
-37.232
-36.948
-36.652
-36.348
-36.036
-35.719
-35.397
-35.074
-34.75
-34.429
-34.113
-33.804
-33.504
-33.215
-32.94
-32.681
-32.44
-32.219
-32.02
-31.845
-31.694
-31.57
-31.473
-31.404
-31.364
-31.353
-31.372
-31.421
-31.499
-31.607
-31.744
-31.911
-32.107
-32.331
-32.584
-32.866
-33.175
-33.512
-33.875
-34.265
-34.681
-35.123
-35.59
-36.081
-36.596
-37.135
-37.697
-38.281
-38.887
-39.514
-40.162
-40.829
-41.515
-42.219
-42.941
-43.68
-44.435
-45.206
-45.991
-46.789
-47.6
-48.423
-49.255
-50.095
-50.942
-51.794
-52.648
-53.504
-54.357
-55.207
-56.051
-56.885
-57.708
-58.517
-59.307
-60.076
-60.821
-61.538
-62.223
-62.874
-63.488
-64.059
-64.587
-65.066
-65.495
-65.87
-66.189
-66.447
-66.644
-66.776
-66.842
-66.84
-66.768
-66.627
-66.415
-66.132
-65.78
-65.36
-64.872
-64.317
-63.699
-63.02
-62.283
-61.491
-60.648
-59.759
-58.83
-57.869
-56.882
-55.877
-54.861
-53.843
-52.83
-51.831
-50.851
-49.895
-48.97
-48.082
-47.24
-46.45
-45.719
-45.051
-44.454
-43.931
-43.487
-43.125
-42.84
-42.631
-42.497
-42.44
-42.471
-42.594
-42.811
-43.126
-43.536
-44.04
-44.631
-45.298
-46.017
-46.766
-47.524
-48.275
-49.012
-49.719
-50.377
-50.964
-51.446
-51.799
-52.004
-52.042
-51.9
-51.589
-51.123
-50.531
-49.862
-49.158
-48.471
-47.865
-47.381
-47.071
-46.977
-47.162
-47.747
-48.818
-50.378
-52.363
-54.605
-56.879
-58.996
-60.695
-61.591
-61.423
-60.145
-57.933
-55.277
-52.846
-51.326
-51.426
-53.899
-58.585
-64.296
-69.852
-74.15
-77.838
-82.481
-87.066
-87.805
-77.489
-49.447
-3.101
57.19
122.618
185.975
245.953
301.688
352.426
393.083
413.502
408.603
377.661
325.331
261.04
189.565
114.108
38.499
-33.323
-94.117
-138.198
-165.165
-178.96
-185.278
-188.154
-188.121
-182.704
-170.677
-153.055
-132.005
-110.515
-90.218
-71.399
-54.47
-40.069
-28.699
-20.538
-15.285
-12.385
-11.563
-12.625
-15.091
-18.051
-20.48
-21.762
-21.718
-20.426
-17.984
-14.458
-10.03
-5.172
-0.51
3.567
6.934
9.657
11.903
13.78
15.367
16.833
18.403
20.22
22.34
24.737
27.318
30.026
32.833
35.706
38.609
41.509
44.373
47.178
49.915
52.578
55.162
57.666
60.091
62.441
64.728
66.971
69.194
71.416
73.651
75.903
78.177
80.483
82.835
85.247
87.73
90.288
92.924
95.638
98.428
101.291
104.212
107.165
110.127
113.073
115.99
118.877
121.728
124.535
127.291
129.982
132.608
135.183
137.717
140.214
142.684
145.129
147.571
150.051
152.598
155.238
157.978
160.793
163.667
166.585
169.525
172.469
175.373
178.157
180.752
183.094
185.121
186.774
187.973
188.607
188.577
187.803
186.235
183.859
180.662
176.621
171.725
165.967
159.375
152.032
144.02
135.414
126.294
116.744
106.879
96.854
86.825
76.918
67.233
57.839
48.804
40.216
32.157
24.708
17.915
11.773
6.275
1.415
-2.816
-6.444
-9.522
-12.148
-14.428
-16.438
-18.233
-19.848
-21.32
-22.704
-24.059
-25.442
-26.886
-28.4
-29.991
-31.669
-33.442
-35.304
-37.227
-39.158
-41.033
-42.811
-44.471
-46.001
-47.39
-48.621
-49.674
-50.533
-51.199
-51.674
-51.96
-52.058
-51.967
-51.697
-51.266
-50.708
-50.058
-49.34
-48.569
-47.76
-46.922
-46.065
-45.201
-44.333
-43.462
-42.59
-41.719
-40.857
-40.009
-39.179
-38.367
-37.569
-36.783
-36.008
-35.244
-34.49
-33.749
-33.02
-32.306
-31.611
-30.939
-30.294
-29.679
-29.093
-28.538
-28.014
-27.523
-27.063
-26.635
-26.238
-25.873
-25.539
-25.236
-24.965
-24.724
-24.513
-24.331
-24.175
-24.046
-23.94
-23.857
-23.794
-23.75
-23.723
-23.71
-23.712
-23.724
-23.747
-23.777
-23.814
-23.855
-23.898
-23.942
-23.986
-24.027
-24.064
-24.097
-24.125
-24.147
-24.162
-24.17
-24.172
-24.167
-24.154
-24.135
-24.108
-24.075
-24.037
-23.993
-23.945
-23.895
-23.844
-23.794
-23.745
-23.701
-23.662
-23.631
-23.609
-23.598
-23.6
-23.615
-23.646
-23.694
-23.759
-23.844
-23.948
-24.074
-24.222
-24.391
-24.584
-24.799
-25.038
-25.3
-25.585
-25.895
-26.228
-26.585
-26.965
-27.369
-27.797
-28.246
-28.717
-29.21
-29.722
-30.253
-30.802
-31.368
-31.95
-32.546
-33.156
-33.778
-34.413
-35.057
-35.711
-36.375
-37.046
-37.725
-38.411
-39.103
-39.802
-40.505
-41.214
-41.927
-42.645
-43.365
-44.087
-44.811
-45.534
-46.255
-46.972
-47.684
-48.388
-49.082
-49.764
-50.432
-51.084
-51.715
-52.324
-52.908
-53.462
-53.984
-54.47
-54.916
-55.318
-55.672
-55.973
-56.219
-56.403
-56.521
-56.57
-56.544
-56.44
-56.252
-55.976
-55.609
-55.148
-54.588
-53.929
-53.167
-52.301
-51.333
-50.264
-49.093
-47.825
-46.461
-45.005
-43.461
-41.833
-40.123
-38.335
-36.473
-34.542
-32.548
-30.5
-28.404
-26.267
-24.098
-21.902
-19.69
-17.467
-15.236
-13.002
-10.77
-8.549
-6.356
-4.205
-2.106
-0.066
1.908
3.816
5.658
7.441
9.187
10.912
12.633
14.362
16.099
17.85
19.627
21.448
23.342
25.333
27.428
29.638
31.966
34.396
36.899
39.42
41.876
44.199
46.33
48.205
49.772
50.968
51.711
51.955
51.631
50.642
48.954
46.576
43.608
40.316
37.028
34.024
31.631
30.211
30.003
31.107
33.323
36.053
38.561
40.285
40.852
39.786
36.717
31.768
25.577
20.042
18.093
21.39
30.79
46.305
66.366
91.923
125.237
167.997
222.58
287.521
357.855
428.161
491.522
541.034
572.141
580.952
563.436
519.918
451.448
359.09
251.18
136.593
27.195
-60.159
-118.237
-146.396
-150.514
-144.89
-137.693
-131.043
-124.033
-111.805
-93.332
-71.249
-48.369
-27.956
-11.694
0.128
7.627
11.59
12.979
12.72
11.565
9.922
8.355
7.736
8.581
10.989
14.75
19.309
24.189
29.134
33.753
37.48
39.981
41.138
41.007
39.897
38.133
35.944
33.593
31.368
29.435
27.905
26.85
26.266
26.16
26.548
27.406
28.704
30.422
32.524
34.96
37.663
40.523
43.441
46.354
49.216
52.009
54.716
57.311
59.778
62.109
64.308
66.373
68.299
70.077
71.712
73.224
74.653
76.045
77.428
78.817
80.216
81.624
83.038
84.454
85.85
87.211
88.525
89.796
91.045
92.283
93.512
94.72
95.883
96.984
98.023
99.002
99.923
100.793
101.61
102.391
103.17
103.957
104.743
105.493
106.138
106.628
106.936
107.037
106.921
106.568
105.943
105.019
103.775
102.185
100.225
97.851
94.995
91.626
87.745
83.382
78.612
73.487
68.04
62.303
56.306
50.08
43.668
37.102
30.398
23.589
16.712
9.824
3.005
-3.692
-10.243
-16.643
-22.918
-29.078
-35.117
-41.037
-46.837
-52.513
-58.067
-63.484
-68.737
-73.813
-78.706
-83.42
-87.978
-92.384
-96.635
-100.719
-104.617
-108.313
-111.801
-115.073
-118.117
-120.93
-123.51
-125.865
-128.013
-129.966
-131.733
-133.323
-134.739
-135.991
-137.09
-138.048
-138.878
-139.592
-140.202
-140.723
-141.17
-141.554
-141.887
-142.176
-142.429
-142.65
-142.847
-143.026
-143.19
-143.345
-143.494
-143.642
-143.792
-143.948
-144.112
-144.284
-144.465
-144.655
-144.852
-145.055
-145.262
-145.471
-145.677
-145.879
-146.073
-146.256
-146.424
-146.574
-146.703
-146.807
-146.883
-146.929
-146.941
-146.918
-146.858
-146.759
-146.621
-146.443
-146.226
-145.971
-145.678
-145.348
-144.985
-144.588
-144.16
-143.703
-143.22
-142.714
-142.186
-141.642
-141.083
-140.513
-139.937
-139.357
-138.778
-138.203
-137.635
-137.078
-136.534
-136.007
-135.498
-135.011
-134.547
-134.107
-133.694
-133.307
-132.948
-132.615
-132.309
-132.028
-131.771
-131.537
-131.323
-131.128
-130.948
-130.781
-130.624
-130.474
-130.329
-130.184
-130.037
-129.884
-129.721
-129.545
-129.352
-129.14
-128.904
-128.642
-128.351
-128.028
-127.67
-127.275
-126.841
-126.366
-125.848
-125.286
-124.679
-124.026
-123.327
-122.582
-121.791
-120.955
-120.074
-119.15
-118.185
-117.178
-116.134
-115.052
-113.935
-112.785
-111.605
-110.397
-109.162
-107.905
-106.627
-105.332
-104.021
-102.698
-101.366
-100.027
-98.683
-97.337
-95.992
-94.65
-93.312
-91.982
-90.661
-89.35
-88.052
-86.768
-85.499
-84.246
-83.009
-81.79
-80.589
-79.405
-78.239
-77.09
-75.957
-74.84
-73.738
-72.65
-71.576
-70.513
-69.46
-68.416
-67.377
-66.342
-65.308
-64.272
-63.232
-62.184
-61.125
-60.052
-58.963
-57.853
-56.719
-55.559
-54.368
-53.145
-51.886
-50.588
-49.249
-47.868
-46.442
-44.971
-43.455
-41.892
-40.285
-38.635
-36.944
-35.214
-33.449
-31.651
-29.825
-27.973
-26.098
-24.205
-22.295
-20.374
-18.447
-16.52
-14.6
-12.692
-10.805
-8.943
-7.115
-5.325
-3.574
-1.865
-0.201
1.413
2.966
4.449
5.856
7.183
8.424
9.583
10.664
11.68
12.654
13.608
14.563
15.533
16.526
17.55
18.62
19.755
20.98
22.315
23.775
25.374
27.126
29.031
31.06
33.164
35.262
37.284
39.182
40.913
42.419
43.643
44.522
45
45.052
44.622
43.6
41.933
39.652
36.903
33.996
31.267
29.012
27.596
27.458
28.864
31.836
36.087
40.972
45.747
49.686
52.019
51.971
49.742
46.643
44.147
43.643
44.594
45.495
47.296
53.796
72.499
110.289
167.672
239.806
316.99
390.584
458.826
522.13
580.375
630.163
661.351
663.335
631.696
566.956
475.276
367.958
254.839
146.404
55.44
-10.329
-48.032
-59.957
-56.151
-46.53
-35.847
-25.663
-13.726
3.042
23.895
46.286
67.573
85.008
97.607
105.89
110.523
112.355
112.424
111.646
110.791
110.759
112.22
115.336
120.097
126.322
133.529
141.219
148.894
155.879
161.679
166.136
169.203
171.018
171.871
172.001
171.7
171.344
171.168
171.295
171.807
172.683
173.897
175.463
177.361
179.571
182.116
184.993
188.184
191.668
195.365
199.197
203.1
207.001
210.848
214.613
218.268
221.813
225.265
228.628
231.912
235.118
238.221
241.216
244.108
246.909
249.654
252.366
255.06
257.752
260.46
263.186
265.928
268.666
271.357
273.972
276.497
278.921
281.249
283.481
285.607
287.623
289.525
291.309
292.979
294.531
295.947
297.231
298.396
299.472
300.508
301.531
302.533
303.501
304.409
305.228
305.932
306.481
306.812
306.878
306.639
306.063
305.131
303.798
301.991
299.623
296.596
292.848
288.359
283.123
277.136
270.41
262.968
254.85
246.135
236.878
227.104
216.844
206.131
195.03
183.656
172.14
160.605
149.15
137.842
126.738
115.904
105.388
95.221
85.422
75.979
66.91
58.275
50.122
42.477
35.338
28.654
22.357
16.399
10.746
5.366
0.241
-4.659
-9.356
-13.847
-18.127
-22.189
-26.043
-29.739
-33.316
-36.792
-40.167
-43.416
-46.498
-49.395
-52.094
-54.575
-56.831
-58.853
-60.637
-62.202
-63.566
-64.742
-65.732
-66.527
-67.116
-67.505
-67.705
-67.736
-67.627
-67.396
-67.062
-66.649
-66.175
-65.653
-65.096
-64.505
-63.879
-63.222
-62.542
-61.845
-61.142
-60.438
-59.737
-59.041
-58.352
-57.671
-56.998
-56.334
-55.676
-55.027
-54.388
-53.764
-53.158
-52.574
-52.016
-51.487
-50.991
-50.529
-50.104
-49.718
-49.372
-49.07
-48.814
-48.606
-48.448
-48.345
-48.297
-48.308
-48.38
-48.514
-48.713
-48.978
-49.31
-49.711
-50.182
-50.723
-51.335
-52.017
-52.77
-53.592
-54.483
-55.443
-56.469
-57.561
-58.716
-59.932
-61.206
-62.536
-63.918
-65.349
-66.825
-68.344
-69.901
-71.492
-73.113
-74.76
-76.429
-78.115
-79.814
-81.52
-83.23
-84.938
-86.642
-88.335
-90.015
-91.678
-93.321
-94.939
-96.532
-98.095
-99.627
-101.126
-102.589
-104.015
-105.403
-106.752
-108.06
-109.328
-110.553
-111.738
-112.88
-113.98
-115.04
-116.058
-117.036
-117.974
-118.874
-119.736
-120.562
-121.353
-122.11
-122.835
-123.529
-124.194
-124.832
-125.444
-126.032
-126.596
-127.139
-127.66
-128.162
-128.645
-129.11
-129.559
-129.991
-130.408
-130.811
-131.2
-131.575
-131.938
-132.288
-132.626
-132.953
-133.27
-133.576
-133.873
-134.162
-134.442
-134.715
-134.981
-135.241
-135.495
-135.744
-135.988
-136.227
-136.463
-136.696
-136.926
-137.155
-137.382
-137.609
-137.838
-138.068
-138.302
-138.54
-138.783
-139.034
-139.294
-139.564
-139.845
-140.14
-140.453
-140.787
-141.144
-141.528
-141.941
-142.386
-142.867
-143.386
-143.941
-144.533
-145.163
-145.831
-146.539
-147.29
-148.085
-148.924
-149.808
-150.739
-151.718
-152.743
-153.808
-154.908
-156.04
-157.207
-158.413
-159.662
-160.952
-162.284
-163.654
-165.055
-166.48
-167.911
-169.323
-170.691
-171.999
-173.231
-174.383
-175.442
-176.392
-177.216
-177.894
-178.414
-178.77
-178.951
-178.952
-178.795
-178.513
-178.16
-177.804
-177.484
-177.238
-177.124
-177.199
-177.519
-178.138
-179.074
-180.362
-182.087
-184.286
-186.918
-189.84
-192.765
-195.429
-197.64
-199.141
-199.607
-198.861
-196.932
-194.182
-191.3
-188.803
-187.132
-186.896
-188.548
-192.318
-197.355
-201.439
-203.116
-201.612
-197.131
-191.449
-182.534
-166.447
-140.785
-101.753
-51.348
4.958
64.99
122.696
173.126
211.968
230.346
225.29
197.602
151.054
93.802
28.609
-42.4
-116.148
-188.531
-248.701
-289.104
-308.135
-309.233
-302.795
-296.022
-290.999
-287.062
-280.538
-270.184
-257.35
-243.385
-229.828
-217.077
-204.545
-192.075
-179.721
-167.569
-155.978
-145.42
-136.337
-129.096
-123.908
-120.538
-118.448
-117.238
-116.502
-115.853
-115.056
-113.917
-112.356
-110.585
-108.986
-107.805
-107.181
-107.118
-107.507
-108.274
-109.316
-110.444
-111.389
-111.92
-111.897
-111.273
-110.076
-108.341
-106.086
-103.344
-100.184
-96.692
-92.96
-89.087
-85.124
-81.097
-77.04
-72.977
-68.939
-64.962
-61.055
-57.208
-53.417
-49.678
-45.988
-42.354
-38.764
-35.193
-31.612
-27.99
-24.307
-20.556
-16.728
-12.819
-8.827
-4.751
-0.602
3.603
7.85
12.128
16.427
20.738
25.048
29.339
33.592
37.79
41.914
45.948
49.874
53.674
57.331
60.83
64.158
67.303
70.251
72.989
75.504
77.782
79.811
81.581
83.08
84.3
85.233
85.872
86.215
86.258
85.999
85.441
84.584
83.432
81.991
80.266
78.267
76.001
73.481
70.719
67.728
64.523
61.119
57.535
53.786
49.892
45.873
41.746
37.532
33.251
28.922
24.567
20.206
15.857
11.541
7.277
3.083
-1.024
-5.027
-8.91
-12.66
-16.263
-19.707
-22.982
-26.078
-28.987
-31.703
-34.22
-36.534
-38.642
-40.543
-42.236
-43.722
-45.003
-46.081
-46.962
-47.649
-48.149
-48.467
-48.611
-48.588
-48.407
-48.077
-47.607
-47.006
-46.285
-45.454
-44.522
-43.499
-42.396
-41.221
-39.984
-38.694
-37.36
-35.99
-34.591
-33.171
-31.736
-30.292
-28.846
-27.401
-25.962
-24.534
-23.119
-21.72
-20.34
-18.981
-17.645
-16.333
-15.045
-13.783
-12.547
-11.336
-10.15
-8.99
-7.852
-6.737
-5.644
-4.57
-3.514
-2.476
-1.453
-0.443
0.553
1.539
2.514
3.48
4.438
5.388
6.332
7.268
8.198
9.12
10.034
10.94
11.836
12.723
13.598
14.461
15.311
16.147
16.967
17.771
18.556
19.323
20.069
20.794
21.494
22.17
22.819
23.44
24.032
24.592
25.12
25.614
26.072
26.495
26.879
27.226
27.533
27.8
28.026
28.213
28.36
28.467
28.536
28.567
28.562
28.521
28.448
28.342
28.206
28.042
27.85
27.633
27.393
27.132
26.852
26.556
26.246
25.925
25.595
25.259
24.92
24.58
24.243
23.912
23.59
23.279
22.985
22.709
22.455
22.226
22.026
21.856
21.72
21.62
21.557
21.533
21.55
21.61
21.713
21.862
22.057
22.3
22.591
22.933
23.324
23.767
24.26
24.805
25.402
26.05
26.749
27.5
28.301
29.152
30.053
31.002
31.998
33.038
34.122
35.247
36.41
37.608
38.839
40.101
41.39
42.703
44.038
45.392
46.761
48.143
49.533
50.927
52.32
53.706
55.08
56.435
57.767
59.069
60.336
61.561
62.742
63.875
64.957
65.983
66.947
67.845
68.672
69.425
70.103
70.702
71.218
71.654
72.014
72.301
72.517
72.661
72.723
72.697
72.583
72.379
72.089
71.715
71.262
70.744
70.183
69.601
69.019
68.45
67.896
67.371
66.893
66.486
66.188
66.023
66.003
66.146
66.461
66.942
67.575
68.322
69.126
69.938
70.711
71.391
71.932
72.271
72.348
72.081
71.354
70.093
68.282
65.989
63.417
60.826
58.459
56.614
55.643
55.797
57.181
59.564
62.308
64.667
65.928
65.484
62.853
57.717
50.091
40.743
31.248
23.583
19.84
21.993
31.854
51.04
80.889
121.097
169.303
222.738
278.218
333.956
390.71
447.397
500.074
542.567
565.287
560.64
527.323
467.456
386.703
293.442
194.476
97.632
13.597
-49.495
-87.59
-101.669
-100.176
-92.931
-85.181
-78.436
-70.434
-57.763
-40.44
-20.398
0.289
19.418
36.062
49.957
60.726
68.456
73.56
76.414
77.253
76.296
73.9
70.843
68.153
66.464
65.947
66.539
68.12
70.605
73.879
77.549
80.997
83.845
85.969
87.421
88.389
89.006
89.356
89.621
90.052
90.814
91.997
93.624
95.642
98.009
100.69
103.611
106.698
109.894
113.147
116.421
119.683
122.906
126.072
129.182
132.238
135.241
138.186
141.067
143.881
146.633
149.337
152.011
154.667
157.316
159.972
162.649
165.363
168.128
170.945
173.811
176.723
179.676
182.67
185.702
188.767
191.856
194.962
198.076
201.187
204.285
207.359
210.393
213.372
216.28
219.103
221.827
224.436
226.914
229.245
231.413
233.4
235.192
236.772
238.123
239.229
240.076
240.649
240.935
240.924
240.603
239.965
239
237.703
236.07
234.097
231.783
229.129
226.137
222.811
219.157
215.183
210.898
206.313
201.44
196.294
190.889
185.243
179.373
173.299
167.04
160.617
154.05
147.363
140.575
133.711
126.792
119.84
112.879
105.93
99.014
92.151
85.363
78.668
72.083
65.626
59.312
53.155
47.168
41.363
35.75
30.337
25.132
20.139
15.365
10.812
6.481
2.373
-1.513
-5.178
-8.625
-11.859
-14.883
-17.704
-20.328
-22.76
-25.01
-27.084
-28.992
-30.742
-32.343
-33.804
-35.135
-36.346
-37.445
-38.443
-39.347
-40.166
-40.909
-41.584
-42.197
-42.756
-43.267
-43.736
-44.168
-44.569
-44.942
-45.291
-45.62
-45.932
-46.229
-46.513
-46.786
-47.05
-47.307
-47.557
-47.801
-48.041
-48.277
-48.509
-48.738
-48.964
-49.187
-49.406
-49.623
-49.837
-50.047
-50.254
-50.457
-50.657
-50.854
-51.048
-51.239
-51.429
-51.617
-51.804
-51.991
-52.178
-52.368
-52.561
-52.758
-52.96
-53.169
-53.386
-53.612
-53.848
-54.095
-54.353
-54.624
-54.908
-55.205
-55.516
-55.84
-56.179
-56.533
-56.901
-57.284
-57.682
-58.094
-58.521
-58.962
-59.417
-59.885
-60.367
-60.86
-61.366
-61.883
-62.41
-62.947
-63.493
-64.047
-64.608
-65.175
-65.746
-66.322
-66.9
-67.479
-68.059
-68.639
-69.219
-69.797
-70.373
-70.947
-71.519
-72.087
-72.652
-73.212
-73.769
-74.322
-74.869
-75.412
-75.949
-76.481
-77.008
-77.529
-78.044
-78.554
-79.057
-79.555
-80.046
-80.531
-81.01
-81.483
-81.949
-82.41
-82.866
-83.316
-83.761
-84.202
-84.638
-85.07
-85.498
-85.921
-86.34
-86.754
-87.163
-87.567
-87.966
-88.359
-88.746
-89.126
-89.5
-89.867
-90.226
-90.577
-90.919
-91.251
-91.573
-91.884
-92.183
-92.469
-92.74
-92.996
-93.236
-93.457
-93.658
-93.838
-93.995
-94.126
-94.23
-94.304
-94.346
-94.354
-94.325
-94.259
-94.153
-94.005
-93.814
-93.579
-93.297
-92.968
-92.59
-92.164
-91.688
-91.162
-90.586
-89.96
-89.285
-88.561
-87.791
-86.976
-86.121
-85.228
-84.302
-83.348
-82.371
-81.376
-80.369
-79.357
-78.345
-77.336
-76.337
-75.352
-74.39
-73.458
-72.562
-71.709
-70.904
-70.153
-69.462
-68.837
-68.277
-67.784
-67.359
-67.008
-66.741
-66.57
-66.499
-66.533
-66.672
-66.914
-67.255
-67.685
-68.18
-68.72
-69.282
-69.847
-70.406
-70.947
-71.45
-71.89
-72.231
-72.44
-72.498
-72.388
-72.099
-71.642
-71.032
-70.32
-69.587
-68.901
-68.328
-67.944
-67.788
-67.916
-68.408
-69.276
-70.549
-72.328
-74.637
-77.456
-80.749
-84.299
-87.833
-91.248
-94.426
-96.966
-98.512
-98.981
-98.32
-97.315
-97.64
-99.496
-102.342
-105.378
-105.11
-100.041
-92.216
-83.36
-79.231
-84.607
-95.889
-107.07
-107.343
-84.563
-36.988
31.385
112.341
194.68
273.361
346.055
409.242
458.54
485.047
480.057
439.865
365.623
267.421
159.681
56.674
-27.594
-88.204
-127.356
-150.706
-168.262
-184.78
-199.799
-211.311
-214.669
-208.337
-194.532
-176.118
-156.523
-137.803
-120.39
-104.479
-90.457
-79.055
-70.662
-65.083
-61.91
-60.663
-60.993
-62.678
-65.106
-67.243
-68.431
-68.436
-67.232
-65.039
-62.036
-58.286
-54.117
-50.14
-46.736
-44.061
-42.129
-40.718
-39.634
-38.791
-38.012
-37.054
-35.776
-34.096
-31.991
-29.549
-26.834
-23.875
-20.72
-17.409
-13.971
-10.441
-6.846
-3.204
0.456
4.113
7.757
11.377
14.972
18.547
22.109
25.671
29.255
32.873
36.533
40.242
43.999
47.812
51.689
55.637
59.662
63.768
67.956
72.228
76.584
81.018
85.523
90.088
94.7
99.348
104.018
108.697
113.373
118.028
122.648
127.214
131.709
136.112
140.403
144.559
148.559
152.38
156
159.397
162.548
165.433
168.032
170.323
172.289
173.912
175.175
176.062
176.56
176.656
176.341
175.606
174.445
172.852
170.827
168.369
165.482
162.17
158.44
154.303
149.77
144.856
139.576
133.948
127.992
121.73
115.186
108.383
101.349
94.111
86.697
79.136
71.458
63.692
55.87
48.021
40.176
32.363
24.612
16.953
9.411
2.014
-5.213
-12.246
-19.062
-25.64
-31.962
-38.009
-43.768
-49.224
-54.367
-59.187
-63.679
-67.837
-71.659
-75.143
-78.292
-81.107
-83.595
-85.761
-87.613
-89.16
-90.414
-91.387
-92.091
-92.542
-92.753
-92.741
-92.522
-92.112
-91.529
-90.79
-89.912
-88.912
-87.808
-86.616
-85.353
-84.035
-82.678
-81.294
-79.899
-78.504
-77.121
-75.76
-74.43
-73.139
-71.893
-70.7
-69.562
-68.485
-67.47
-66.519
-65.633
-64.812
-64.054
-63.358
-62.721
-62.14
-61.612
-61.132
-60.696
-60.299
-59.937
-59.604
-59.296
-59.005
-58.728
-58.459
-58.192
-57.922
-57.644
-57.355
-57.05
-56.726
-56.38
-56.01
-55.615
-55.194
-54.747
-54.273
-53.774
-53.251
-52.706
-52.142
-51.561
-50.967
-50.363
-49.754
-49.144
-48.537
-47.937
-47.349
-46.777
-46.226
-45.7
-45.204
-44.74
-44.315
-43.93
-43.591
-43.301
-43.062
-42.878
-42.75
-42.681
-42.672
-42.723
-42.835
-43.006
-43.238
-43.527
-43.872
-44.27
-44.72
-45.217
-45.757
-46.337
-46.952
-47.597
-48.268
-48.959
-49.665
-50.382
-51.104
-51.827
-52.546
-53.257
-53.955
-54.636
-55.296
-55.931
-56.536
-57.11
-57.647
-58.147
-58.606
-59.022
-59.395
-59.723
-60.005
-60.242
-60.433
-60.579
-60.681
-60.741
-60.76
-60.742
-60.688
-60.603
-60.489
-60.349
-60.188
-60.01
-59.817
-59.614
-59.404
-59.19
-58.975
-58.763
-58.556
-58.358
-58.17
-57.996
-57.838
-57.697
-57.575
-57.474
-57.395
-57.338
-57.304
-57.293
-57.304
-57.337
-57.39
-57.463
-57.553
-57.658
-57.776
-57.903
-58.037
-58.173
-58.308
-58.438
-58.559
-58.667
-58.756
-58.825
-58.869
-58.884
-58.867
-58.815
-58.724
-58.593
-58.418
-58.199
-57.932
-57.616
-57.252
-56.838
-56.375
-55.864
-55.304
-54.699
-54.052
-53.367
-52.647
-51.899
-51.128
-50.341
-49.543
-48.743
-47.945
-47.156
-46.381
-45.627
-44.901
-44.213
-43.568
-42.975
-42.439
-41.967
-41.566
-41.239
-40.987
-40.81
-40.71
-40.688
-40.757
-40.926
-41.199
-41.58
-42.071
-42.667
-43.364
-44.151
-45.003
-45.897
-46.811
-47.724
-48.628
-49.511
-50.35
-51.122
-51.792
-52.324
-52.7
-52.896
-52.897
-52.709
-52.354
-51.876
-51.347
-50.823
-50.356
-50.015
-49.851
-49.922
-50.29
-50.983
-52.07
-53.69
-55.907
-58.715
-62.027
-65.59
-69.13
-72.446
-75.187
-76.893
-77.271
-76.242
-74.013
-71.152
-68.336
-66.155
-65.309
-66.752
-70.343
-74.561
-77.932
-78.604
-77.037
-76.656
-77.898
-78.21
-70.915
-45.365
3.22
72.84
156.771
243.858
326.344
400.585
462.096
506.911
530.194
525.34
491.206
429.803
343.913
242.72
135.228
31.908
-53.008
-113.443
-148.515
-162.75
-168.03
-171.033
-173.635
-174.871
-169.531
-156.059
-136.639
-113.988
-91.609
-71.137
-52.428
-35.56
-20.919
-8.877
0.473
7.457
12.544
15.939
17.719
18.183
18.068
18.191
18.927
20.271
22.047
24.124
26.479
29.017
31.378
33.065
33.849
33.779
33.044
31.893
30.474
28.882
27.313
26.048
25.299
25.178
25.699
26.797
28.428
30.583
33.222
36.271
39.632
43.188
46.853
50.579
54.334
58.094
61.835
65.525
69.139
72.672
76.127
79.514
82.837
86.094
89.292
92.448
95.597
98.779
102.025
105.353
108.777
112.301
115.933
119.677
123.531
127.483
131.521
135.633
139.812
144.05
148.338
152.66
156.997
161.331
165.643
169.915
174.128
178.262
182.298
186.217
190
193.631
197.094
200.367
203.433
206.27
208.861
211.185
213.225
214.962
216.379
217.462
218.197
218.573
218.579
218.207
217.45
216.304
214.767
212.838
210.518
207.811
204.721
201.255
197.424
193.237
188.709
183.852
178.684
173.222
167.484
161.493
155.267
148.831
142.207
135.418
128.491
121.45
114.321
107.128
99.9
92.66
85.436
78.25
71.128
64.091
57.162
50.363
43.711
37.227
30.925
24.823
18.933
13.269
7.84
2.656
-2.275
-6.947
-11.357
-15.5
-19.375
-22.981
-26.321
-29.396
-32.209
-34.765
-37.07
-39.13
-40.952
-42.546
-43.919
-45.082
-46.045
-46.818
-47.412
-47.839
-48.109
-48.233
-48.223
-48.088
-47.841
-47.491
-47.048
-46.521
-45.92
-45.252
-44.527
-43.751
-42.93
-42.073
-41.183
-40.267
-39.329
-38.374
-37.405
-36.428
-35.444
-34.457
-33.469
-32.482
-31.499
-30.522
-29.551
-28.589
-27.637
-26.695
-25.766
-24.851
-23.951
-23.067
-22.201
-21.355
-20.529
-19.727
-18.951
-18.202
-17.483
-16.797
-16.146
-15.534
-14.964
-14.439
-13.962
-13.536
-13.164
-12.85
-12.595
-12.402
-12.275
-12.214
-12.222
-12.301
-12.451
-12.675
-12.972
-13.343
-13.787
-14.304
-14.893
-15.552
-16.281
-17.076
-17.934
-18.853
-19.829
-20.858
-21.935
-23.056
-24.215
-25.406
-26.624
-27.863
-29.115
-30.375
-31.636
-32.891
-34.134
-35.358
-36.556
-37.723
-38.853
-39.94
-40.978
-41.963
-42.89
-43.755
-44.554
-45.283
-45.941
-46.524
-47.031
-47.461
-47.811
-48.083
-48.276
-48.39
-48.427
-48.389
-48.277
-48.095
-47.844
-47.53
-47.155
-46.724
-46.241
-45.712
-45.141
-44.534
-43.896
-43.232
-42.55
-41.853
-41.149
-40.442
-39.737
-39.041
-38.358
-37.694
-37.053
-36.439
-35.858
-35.313
-34.808
-34.347
-33.932
-33.569
-33.258
-33.002
-32.804
-32.665
-32.586
-32.569
-32.614
-32.721
-32.891
-33.122
-33.413
-33.765
-34.173
-34.637
-35.154
-35.721
-36.335
-36.992
-37.69
-38.424
-39.19
-39.984
-40.801
-41.638
-42.489
-43.348
-44.212
-45.075
-45.931
-46.776
-47.604
-48.409
-49.187
-49.931
-50.638
-51.303
-51.92
-52.487
-52.998
-53.452
-53.845
-54.176
-54.442
-54.643
-54.779
-54.852
-54.863
-54.814
-54.709
-54.551
-54.344
-54.093
-53.8
-53.472
-53.112
-52.726
-52.32
-51.9
-51.475
-51.051
-50.636
-50.237
-49.861
-49.516
-49.206
-48.933
-48.702
-48.519
-48.396
-48.342
-48.362
-48.46
-48.639
-48.899
-49.238
-49.648
-50.11
-50.609
-51.13
-51.664
-52.206
-52.753
-53.292
-53.807
-54.274
-54.671
-54.987
-55.218
-55.349
-55.377
-55.32
-55.212
-55.119
-55.102
-55.187
-55.399
-55.761
-56.307
-57.093
-58.169
-59.555
-61.289
-63.432
-66.028
-69.081
-72.467
-75.928
-79.175
-81.941
-83.966
-84.956
-84.642
-82.948
-80.184
-76.914
-73.733
-71.229
-69.897
-70.331
-73.28
-78.284
-83.336
-86.578
-86.187
-82.519
-78.594
-74.518
-67.637
-52.516
-21.562
27.733
92.468
166.345
241.685
313.229
376.515
426.885
457.899
461.354
433.642
375.507
291.777
192.839
88.361
-12.799
-100.618
-167.848
-210.666
-228.939
-227.781
-216.358
-202.452
-190.293
-181.793
-174.022
-162.769
-146.715
-125.227
-100.469
-76.912
-57.423
-43.133
-33.651
-28.115
-25.641
-26.828
-32.612
-40.434
-47.862
-52.076
-50.135
-44.236
-36.597
-29.014
-24.024
-20.578
-17.803
-15.716
-13.473
-11.641
-10.698
-10.257
-10.249
-10.37
-10.182
-9.643
-8.75
-7.448
-5.787
-3.775
-1.407
1.273
4.206
7.333
10.603
13.969
17.386
20.804
24.181
27.486
30.706
33.85
36.924
39.93
42.867
45.724
48.499
51.201
53.84
56.437
59.014
61.585
64.173
66.802
69.488
72.244
75.077
77.98
80.949
83.983
87.078
90.234
93.449
96.716
100.029
103.38
106.76
110.157
113.561
116.954
120.322
123.649
126.92
130.121
133.237
136.251
139.146
141.905
144.511
146.947
149.195
151.237
153.056
154.637
155.963
157.021
157.799
158.284
158.466
158.336
157.886
157.112
156.009
154.575
152.81
150.714
148.29
145.545
142.485
139.117
135.454
131.507
127.29
122.819
118.11
113.183
108.055
102.75
97.286
91.688
85.977
80.177
74.311
68.403
62.476
56.554
50.659
44.814
39.039
33.355
27.782
22.337
17.038
11.9
6.938
2.163
-2.412
-6.777
-10.926
-14.85
-18.547
-22.011
-25.241
-28.238
-31.002
-33.537
-35.847
-37.936
-39.813
-41.484
-42.958
-44.246
-45.358
-46.304
-47.097
-47.749
-48.271
-48.678
-48.98
-49.191
-49.323
-49.387
-49.395
-49.358
-49.286
-49.19
-49.078
-48.958
-48.838
-48.724
-48.624
-48.541
-48.479
-48.443
-48.434
-48.454
-48.505
-48.586
-48.696
-48.835
-49
-49.189
-49.398
-49.625
-49.865
-50.115
-50.368
-50.622
-50.871
-51.111
-51.336
-51.542
-51.725
-51.88
-52.004
-52.093
-52.144
-52.154
-52.122
-52.044
-51.92
-51.749
-51.531
-51.265
-50.953
-50.595
-50.193
-49.748
-49.264
-48.742
-48.186
-47.599
-46.985
-46.347
-45.69
-45.017
-44.334
-43.645
-42.953
-42.264
-41.582
-40.911
-40.256
-39.62
-39.008
-38.422
-37.867
-37.344
-36.857
-36.408
-35.998
-35.63
-35.304
-35.021
-34.782
-34.586
-34.434
-34.325
-34.257
-34.23
-34.242
-34.291
-34.375
-34.492
-34.639
-34.814
-35.014
-35.236
-35.477
-35.735
-36.005
-36.285
-36.572
-36.861
-37.152
-37.439
-37.72
-37.993
-38.255
-38.502
-38.734
-38.947
-39.14
-39.311
-39.458
-39.579
-39.674
-39.741
-39.779
-39.786
-39.762
-39.707
-39.62
-39.5
-39.346
-39.16
-38.941
-38.688
-38.402
-38.084
-37.732
-37.348
-36.931
-36.484
-36.005
-35.496
-34.957
-34.39
-33.795
-33.174
-32.528
-31.858
-31.165
-30.451
-29.718
-28.967
-28.2
-27.418
-26.624
-25.821
-25.013
-24.204
-23.398
-22.599
-21.812
-21.041
-20.291
-19.564
-18.863
-18.189
-17.546
-16.938
-16.368
-15.84
-15.357
-14.921
-14.536
-14.205
-13.927
-13.704
-13.529
-13.401
-13.318
-13.286
-13.311
-13.398
-13.548
-13.759
-14.029
-14.354
-14.725
-15.127
-15.537
-15.933
-16.299
-16.624
-16.902
-17.122
-17.267
-17.313
-17.235
-17.016
-16.643
-16.107
-15.412
-14.57
-13.605
-12.56
-11.483
-10.422
-9.429
-8.552
-7.836
-7.331
-7.08
-7.146
-7.622
-8.549
-9.899
-11.569
-13.337
-14.964
-16.262
-16.989
-16.83
-15.6
-13.326
-10.288
-7.088
-4.362
-2.526
-1.959
-3.092
-6.078
-10.598
-15.823
-20.306
-22.394
-20.721
-13.945
-0.698
19.904
48.179
83.734
125.038
170.046
216.134
259.403
296.69
325.639
344.765
355.71
358.697
350.967
329.813
289.313
226.014
145.354
55.822
-28.636
-92.524
-130.804
-144.669
-141.536
-133.863
-127.682
-124.069
-121.445
-115.56
-105.401
-92.523
-78.458
-65.083
-52.993
-41.742
-31.255
-21.284
-11.64
-2.644
5.335
12.034
17.193
20.879
23.564
25.501
26.816
27.841
28.798
29.828
31.098
32.469
33.54
34.112
34.101
33.42
32.177
30.499
28.453
26.254
24.191
22.45
21.199
20.545
20.482
21.006
22.119
23.772
25.915
28.504
31.469
34.743
38.259
41.937
45.722
49.572
53.448
57.316
61.143
64.904
68.598
72.229
75.8
79.314
82.77
86.169
89.531
92.878
96.233
99.625
103.067
106.57
110.145
113.795
117.518
121.313
125.166
129.062
132.991
136.94
140.9
144.862
148.81
152.727
156.599
160.408
164.136
167.766
171.283
174.668
177.907
180.987
183.893
186.614
189.136
191.445
193.527
195.37
196.96
198.284
199.331
200.09
200.552
200.709
200.554
200.084
199.295
198.184
196.751
194.995
192.92
190.528
187.823
184.813
181.505
177.908
174.032
169.889
165.492
160.856
155.996
150.928
145.668
140.236
134.649
128.926
123.088
117.155
111.147
105.086
98.993
92.888
86.791
80.724
74.706
68.754
62.888
57.123
51.478
45.966
40.603
35.401
30.374
25.531
20.883
16.439
12.206
8.19
4.395
0.827
-2.513
-5.624
-8.505
-11.159
-13.586
-15.79
-17.777
-19.551
-21.12
-22.491
-23.673
-24.674
-25.506
-26.177
-26.7
-27.085
-27.343
-27.485
-27.523
-27.469
-27.333
-27.126
-26.86
-26.545
-26.192
-25.811
-25.41
-25
-24.587
-24.182
-23.789
-23.418
-23.073
-22.761
-22.486
-22.253
-22.066
-21.926
-21.836
-21.798
-21.811
-21.876
-21.992
-22.157
-22.369
-22.627
-22.926
-23.265
-23.639
-24.046
-24.482
-24.942
-25.422
-25.92
-26.43
-26.95
-27.475
-28.001
-28.526
-29.047
-29.559
-30.061
-30.55
-31.024
-31.479
-31.916
-32.331
-32.724
-33.093
-33.439
-33.762
-34.061
-34.337
-34.592
-34.827
-35.042
-35.241
-35.424
-35.595
-35.755
-35.908
-36.055
-36.199
-36.342
-36.488
-36.639
-36.795
-36.961
-37.137
-37.324
-37.525
-37.74
-37.971
-38.218
-38.481
-38.762
-39.06
-39.376
-39.708
-40.057
-40.421
-40.801
-41.194
-41.599
-42.017
-42.445
-42.882
-43.327
-43.78
-44.24
-44.704
-45.172
-45.643
-46.116
-46.589
-47.062
-47.535
-48.008
-48.48
-48.953
-49.426
-49.902
-50.382
-50.866
-51.357
-51.856
-52.365
-52.886
-53.423
-53.977
-54.551
-55.149
-55.772
-56.425
-57.109
-57.827
-58.58
-59.371
-60.198
-61.064
-61.968
-62.908
-63.884
-64.897
-65.946
-67.031
-68.151
-69.305
-70.492
-71.71
-72.955
-74.222
-75.505
-76.797
-78.09
-79.378
-80.654
-81.915
-83.152
-84.361
-85.54
-86.683
-87.785
-88.838
-89.83
-90.751
-91.6
-92.379
-93.092
-93.751
-94.366
-94.945
-95.504
-96.052
-96.592
-97.122
-97.625
-98.083
-98.491
-98.847
-99.163
-99.449
-99.7
-99.904
-100.051
-100.114
-100.077
-99.921
-99.609
-99.118
-98.447
-97.612
-96.657
-95.635
-94.573
-93.482
-92.361
-91.206
-90.034
-88.869
-87.727
-86.635
-85.614
-84.69
-83.916
-83.335
-82.956
-82.764
-82.716
-82.765
-82.91
-83.188
-83.633
-84.275
-85.123
-86.192
-87.52
-89.146
-91.095
-93.356
-95.902
-98.752
-101.95
-105.503
-109.328
-113.241
-116.995
-120.363
-123.112
-124.912
-125.444
-124.574
-122.515
-119.74
-116.774
-114.184
-112.524
-112.483
-114.939
-119.433
-123.853
-126.411
-125.327
-121.439
-118.71
-117.327
-114.669
-104.503
-76.451
-26.758
42.842
126.686
213.294
294.688
363.933
413.318
438.912
435.601
402.253
343.146
262.115
166.495
63.613
-40.06
-133.464
-206.496
-253.595
-273.771
-274.334
-266.229
-256.04
-246.391
-235.778
-220.384
-199.907
-176.434
-152.506
-131.035
-113.39
-99.901
-90.541
-84.682
-81.543
-80.359
-80.488
-81.482
-82.727
-83.316
-82.697
-80.742
-77.61
-73.757
-69.551
-65.187
-61.012
-57.552
-55.102
-53.709
-53.28
-53.514
-54.141
-55.022
-55.957
-56.692
-57.069
-56.987
-56.385
-55.286
-53.708
-51.642
-49.12
-46.196
-42.927
-39.399
-35.689
-31.853
-27.957
-24.045
-20.144
-16.275
-12.448
-8.66
-4.92
-1.239
2.382
5.936
9.422
12.847
16.224
19.577
22.934
26.32
29.756
33.256
36.825
40.467
44.18
47.953
51.777
55.646
59.549
63.481
67.435
71.399
75.362
79.308
83.223
87.088
90.885
94.597
98.205
101.693
105.042
108.238
111.265
114.108
116.751
119.176
121.368
123.31
124.988
126.385
127.489
128.285
128.762
128.911
128.722
128.189
127.304
126.066
124.471
122.519
120.211
117.55
114.542
111.193
107.512
103.508
99.195
94.586
89.696
84.543
79.145
73.522
67.695
61.685
55.514
49.206
42.783
36.269
29.688
23.063
16.42
9.782
3.172
-3.386
-9.869
-16.256
-22.526
-28.658
-34.635
-40.439
-46.053
-51.462
-56.653
-61.613
-66.332
-70.8
-75.01
-78.956
-82.634
-86.04
-89.173
-92.034
-94.623
-96.944
-98.999
-100.795
-102.337
-103.631
-104.685
-105.508
-106.108
-106.495
-106.68
-106.672
-106.483
-106.123
-105.605
-104.94
-104.138
-103.213
-102.174
-101.034
-99.803
-98.493
-97.113
-95.674
-94.186
-92.657
-91.097
-89.514
-87.914
-86.307
-84.697
-83.091
-81.494
-79.912
-78.348
-76.808
-75.293
-73.809
-72.357
-70.94
-69.561
-68.22
-66.921
-65.664
-64.45
-63.281
-62.157
-61.079
-60.047
-59.06
-58.12
-57.226
-56.377
-55.573
-54.812
-54.095
-53.419
-52.785
-52.19
-51.634
-51.115
-50.632
-50.182
-49.766
-49.38
-49.024
-48.695
-48.392
-48.114
-47.858
-47.622
-47.406
-47.207
-47.023
-46.852
-46.692
-46.542
-46.399
-46.261
-46.127
-45.994
-45.86
-45.725
-45.585
-45.441
-45.29
-45.131
-44.963
-44.785
-44.596
-44.395
-44.182
-43.956
-43.718
-43.467
-43.203
-42.926
-42.637
-42.337
-42.026
-41.703
-41.371
-41.03
-40.68
-40.322
-39.957
-39.586
-39.21
-38.83
-38.447
-38.063
-37.677
-37.292
-36.909
-36.527
-36.148
-35.774
-35.404
-35.041
-34.684
-34.335
-33.994
-33.663
-33.342
-33.031
-32.732
-32.443
-32.167
-31.903
-31.651
-31.411
-31.185
-30.972
-30.773
-30.588
-30.417
-30.261
-30.12
-29.993
-29.881
-29.783
-29.7
-29.631
-29.575
-29.534
-29.506
-29.491
-29.489
-29.498
-29.517
-29.545
-29.581
-29.623
-29.669
-29.716
-29.763
-29.808
-29.847
-29.879
-29.9
-29.908
-29.9
-29.872
-29.822
-29.745
-29.638
-29.497
-29.319
-29.101
-28.839
-28.531
-28.174
-27.765
-27.302
-26.783
-26.206
-25.571
-24.875
-24.119
-23.303
-22.428
-21.495
-20.506
-19.465
-18.376
-17.244
-16.075
-14.875
-13.651
-12.41
-11.162
-9.913
-8.67
-7.44
-6.231
-5.05
-3.906
-2.809
-1.768
-0.789
0.118
0.946
1.688
2.339
2.897
3.362
3.733
4.004
4.166
4.211
4.135
3.935
3.61
3.164
2.602
1.937
1.194
0.396
-0.434
-1.275
-2.115
-2.941
-3.729
-4.456
-5.087
-5.591
-5.945
-6.127
-6.114
-5.911
-5.533
-5.016
-4.424
-3.804
-3.202
-2.685
-2.297
-2.093
-2.13
-2.432
-3.06
-4.138
-5.724
-7.818
-10.349
-13.086
-15.779
-18.235
-20.122
-21.002
-20.592
-18.785
-15.743
-11.986
-8.17
-4.885
-2.835
-2.979
-5.291
-8.566
-11.655
-12.809
-12.219
-12.598
-13.828
-13.56
-5.864
18.834
64.529
129.611
208.165
289.89
368.445
440.942
503.748
553.829
584.382
586.065
554.441
488.008
391.32
277.397
159.449
52.672
-29.398
-83.572
-111.661
-121.542
-124.893
-126.909
-128.576
-127.686
-119.634
-103.953
-83.164
-60.354
-38.817
-19.754
-3.125
10.884
22.278
30.976
37.129
41.334
43.894
44.867
44.508
43.276
41.809
40.829
40.61
41.015
41.996
43.538
45.556
47.907
50.252
52.141
53.383
54.044
54.237
54.113
53.792
53.355
52.973
52.897
53.29
54.233
55.739
57.754
60.232
63.139
66.408
69.933
73.619
77.379
81.145
84.892
88.604
92.266
95.869
99.411
102.878
106.265
109.572
112.793
115.934
119.004
122.021
125.02
128.034
131.089
134.205
137.393
140.653
143.979
147.361
150.771
154.186
157.585
160.951
164.281
167.573
170.822
174.02
177.155
180.225
183.238
186.213
189.158
192.089
195.021
197.978
201.008
204.152
207.432
210.862
214.43
218.109
221.878
225.705
229.545
233.34
237.007
240.45
243.595
246.369
248.698
250.505
251.684
252.143
251.818
250.662
248.657
245.804
242.103
237.571
232.255
226.218
219.553
212.371
204.756
196.789
188.552
180.127
171.623
163.136
154.738
146.485
138.421
130.577
122.991
115.686
108.66
101.899
95.372
89.036
82.871
76.862
70.994
65.256
59.627
54.088
48.64
43.29
38.044
32.91
27.891
22.992
18.231
13.63
9.214
5.011
1.036
-2.702
-6.193
-9.433
-12.421
-15.157
-17.649
-19.91
-21.95
-23.781
-25.409
-26.845
-28.102
-29.193
-30.133
-30.937
-31.617
-32.185
-32.653
-33.031
-33.328
-33.552
-33.709
-33.804
-33.842
-33.831
-33.774
-33.679
-33.55
-33.391
-33.207
-33.001
-32.777
-32.538
-32.284
-32.016
-31.737
-31.446
-31.143
-30.829
-30.503
-30.165
-29.813
-29.448
-29.069
-28.674
-28.262
-27.834
-27.387
-26.923
-26.439
-25.937
-25.416
-24.877
-24.32
-23.747
-23.159
-22.557
-21.943
-21.32
-20.689
-20.052
-19.414
-18.775
-18.139
-17.509
-16.889
-16.281
-15.689
-15.116
-14.566
-14.042
-13.548
-13.086
-12.661
-12.274
-11.929
-11.629
-11.377
-11.173
-11.022
-10.925
-10.883
-10.898
-10.971
-11.104
-11.295
-11.546
-11.857
-12.225
-12.651
-13.133
-13.669
-14.258
-14.897
-15.584
-16.316
-17.092
-17.907
-18.759
-19.644
-20.56
-21.503
-22.468
-23.454
-24.455
-25.468
-26.49
-27.517
-28.545
-29.57
-30.59
-31.601
-32.599
-33.581
-34.544
-35.486
-36.403
-37.295
-38.158
-38.991
-39.793
-40.562
-41.298
-42.001
-42.669
-43.302
-43.901
-44.465
-44.994
-45.489
-45.95
-46.378
-46.772
-47.135
-47.468
-47.771
-48.046
-48.294
-48.517
-48.717
-48.895
-49.052
-49.19
-49.31
-49.413
-49.501
-49.574
-49.634
-49.681
-49.715
-49.736
-49.744
-49.739
-49.721
-49.687
-49.638
-49.571
-49.487
-49.384
-49.262
-49.119
-48.955
-48.77
-48.562
-48.332
-48.079
-47.803
-47.503
-47.179
-46.831
-46.459
-46.062
-45.642
-45.2
-44.739
-44.263
-43.774
-43.276
-42.773
-42.271
-41.773
-41.283
-40.804
-40.339
-39.892
-39.468
-39.072
-38.709
-38.384
-38.099
-37.859
-37.667
-37.525
-37.434
-37.39
-37.392
-37.44
-37.541
-37.705
-37.941
-38.251
-38.639
-39.103
-39.644
-40.259
-40.934
-41.646
-42.37
-43.083
-43.769
-44.418
-45.011
-45.521
-45.917
-46.156
-46.209
-46.058
-45.692
-45.101
-44.294
-43.283
-42.102
-40.824
-39.522
-38.275
-37.167
-36.268
-35.636
-35.354
-35.53
-36.243
-37.525
-39.31
-41.4
-43.597
-45.745
-47.65
-49.059
-49.743
-49.543
-48.567
-47.328
-46.342
-45.952
-46.557
-48.514
-52.066
-57.521
-63.946
-68.909
-70.418
-66.649
-57.924
-47.299
-35.326
-20.772
0.425
35.95
88.526
157.087
237.314
319.413
396.395
461.423
506.712
528.068
520.161
481.902
417.407
330.854
230.931
126.223
24.63
-62.361
-127.071
-166.711
-182.899
-184.395
-180.192
-174.515
-168.213
-158.805
-143.606
-123.337
-100.361
-77.259
-56.345
-38.663
-24.743
-14.717
-8.144
-4.417
-2.807
-2.711
-3.734
-5.201
-6.068
-5.665
-3.757
-0.433
3.843
8.665
13.784
18.751
22.918
25.88
27.47
27.721
26.94
25.441
23.452
21.252
19.146
17.328
15.93
15.036
14.65
14.769
15.399
16.516
18.086
20.092
22.504
25.272
28.329
31.579
34.937
38.349
41.781
45.211
48.618
51.98
55.274
58.503
61.671
64.781
67.833
70.821
73.75
76.64
79.526
82.446
85.429
88.49
91.64
94.885
98.229
101.671
105.206
108.818
112.494
116.224
119.999
123.812
127.652
131.503
135.345
139.159
142.927
146.63
150.249
153.765
157.16
160.415
163.515
166.446
169.191
171.733
174.056
176.142
177.976
179.541
180.823
181.806
182.479
182.829
182.848
182.528
181.862
180.847
179.479
177.758
175.684
173.262
170.494
167.388
163.95
160.192
156.123
151.757
147.108
142.191
137.023
131.623
126.008
120.198
114.214
108.077
101.806
95.426
88.956
82.421
75.841
69.239
62.636
56.055
49.517
43.04
36.644
30.348
24.168
18.12
12.218
6.477
0.906
-4.482
-9.679
-14.676
-19.469
-24.05
-28.418
-32.569
-36.503
-40.219
-43.719
-47.004
-50.079
-52.946
-55.612
-58.081
-60.359
-62.455
-64.376
-66.129
-67.723
-69.167
-70.471
-71.643
-72.693
-73.631
-74.464
-75.203
-75.857
-76.434
-76.941
-77.388
-77.782
-78.129
-78.436
-78.709
-78.953
-79.173
-79.373
-79.557
-79.729
-79.891
-80.045
-80.194
-80.339
-80.481
-80.622
-80.761
-80.9
-81.038
-81.175
-81.31
-81.444
-81.575
-81.702
-81.826
-81.944
-82.056
-82.162
-82.26
-82.35
-82.43
-82.5
-82.56
-82.61
-82.648
-82.676
-82.694
-82.702
-82.7
-82.69
-82.672
-82.648
-82.618
-82.585
-82.55
-82.513
-82.478
-82.445
-82.417
-82.394
-82.38
-82.375
-82.38
-82.399
-82.431
-82.479
-82.544
-82.627
-82.728
-82.85
-82.992
-83.155
-83.34
-83.548
-83.777
-84.03
-84.304
-84.6
-84.917
-85.255
-85.612
-85.987
-86.379
-86.786
-87.206
-87.638
-88.081
-88.531
-88.987
-89.447
-89.908
-90.37
-90.828
-91.283
-91.73
-92.17
-92.599
-93.017
-93.423
-93.813
-94.189
-94.548
-94.889
-95.213
-95.517
-95.802
-96.067
-96.312
-96.537
-96.742
-96.928
-97.095
-97.244
-97.376
-97.492
-97.593
-97.681
-97.756
-97.819
-97.873
-97.918
-97.956
-97.988
-98.016
-98.039
-98.06
-98.079
-98.097
-98.113
-98.128
-98.141
-98.152
-98.16
-98.165
-98.165
-98.159
-98.146
-98.124
-98.092
-98.048
-97.991
-97.918
-97.827
-97.717
-97.584
-97.428
-97.247
-97.038
-96.8
-96.533
-96.238
-95.915
-95.564
-95.185
-94.781
-94.352
-93.899
-93.423
-92.924
-92.403
-91.861
-91.302
-90.73
-90.148
-89.56
-88.971
-88.383
-87.801
-87.23
-86.669
-86.117
-85.577
-85.055
-84.562
-84.11
-83.703
-83.346
-83.044
-82.796
-82.601
-82.45
-82.323
-82.201
-82.068
-81.909
-81.721
-81.499
-81.224
-80.876
-80.43
-79.864
-79.17
-78.344
-77.377
-76.278
-75.073
-73.812
-72.573
-71.422
-70.412
-69.6
-69.044
-68.815
-68.994
-69.632
-70.786
-72.537
-74.921
-77.929
-81.479
-85.336
-89.226
-92.924
-96.15
-98.562
-99.914
-100.09
-99.236
-97.878
-96.568
-95.636
-95.446
-96.547
-99.356
-103.98
-109.316
-113.019
-112.95
-107.906
-98.889
-87.612
-74.143
-56.911
-30.946
8.8
64.178
135.019
215.324
295.236
364.74
411.769
428.78
415.64
375.738
318.179
251.29
176.615
95.99
10.911
-73.96
-146.071
-196.718
-222.914
-227.567
-221.707
-213.072
-204.248
-195.197
-182.439
-165.125
-145.484
-125.809
-108.657
-95.419
-86.105
-80.334
-77.459
-76.664
-77.074
-78.069
-79.155
-79.647
-79.028
-77.089
-73.769
-69.309
-64.161
-58.62
-53.007
-47.809
-43.347
-39.777
-37.165
-35.384
-34.224
-33.516
-33.035
-32.514
-31.791
-30.778
-29.438
-27.801
-25.896
-23.741
-21.382
-18.873
-16.247
-13.527
-10.724
-7.847
-4.921
-1.985
0.918
3.76
6.529
9.219
11.832
14.372
16.843
19.263
21.652
24.029
26.403
28.784
31.179
33.599
36.059
38.57
41.148
43.801
46.537
49.361
52.276
55.283
58.378
61.557
64.812
68.135
71.521
74.96
78.443
81.961
85.5
89.047
92.589
96.11
99.592
103.016
106.365
109.618
112.756
115.759
118.608
121.282
123.763
126.032
128.07
129.86
131.385
132.63
133.58
134.222
134.545
134.539
134.194
133.505
132.467
131.078
129.336
127.244
124.803
122.021
118.903
115.46
111.702
107.642
103.296
98.679
93.81
88.708
83.395
77.892
72.224
66.413
60.485
54.464
48.375
42.244
36.096
29.954
23.845
17.791
11.816
5.942
0.189
-5.421
-10.871
-16.143
-21.22
-26.09
-30.739
-35.156
-39.331
-43.257
-46.929
-50.341
-53.491
-56.378
-59.004
-61.37
-63.48
-65.341
-66.958
-68.341
-69.498
-70.44
-71.178
-71.723
-72.088
-72.286
-72.331
-72.235
-72.013
-71.678
-71.245
-70.726
-70.134
-69.483
-68.785
-68.051
-67.293
-66.52
-65.743
-64.97
-64.21
-63.469
-62.755
-62.072
-61.425
-60.818
-60.254
-59.735
-59.26
-58.831
-58.447
-58.105
-57.805
-57.543
-57.316
-57.121
-56.954
-56.81
-56.687
-56.578
-56.479
-56.387
-56.295
-56.202
-56.101
-55.989
-55.864
-55.721
-55.559
-55.374
-55.165
-54.93
-54.668
-54.377
-54.059
-53.711
-53.336
-52.933
-52.506
-52.054
-51.582
-51.091
-50.586
-50.068
-49.543
-49.014
-48.485
-47.96
-47.444
-46.94
-46.452
-45.986
-45.544
-45.13
-44.749
-44.403
-44.095
-43.828
-43.603
-43.422
-43.287
-43.199
-43.159
-43.166
-43.22
-43.323
-43.472
-43.668
-43.908
-44.191
-44.515
-44.877
-45.276
-45.707
-46.169
-46.657
-47.168
-47.699
-48.246
-48.806
-49.374
-49.947
-50.521
-51.093
-51.659
-52.215
-52.757
-53.283
-53.789
-54.272
-54.731
-55.163
-55.565
-55.935
-56.272
-56.574
-56.839
-57.066
-57.252
-57.397
-57.5
-57.56
-57.575
-57.546
-57.47
-57.348
-57.18
-56.965
-56.704
-56.395
-56.038
-55.635
-55.185
-54.689
-54.148
-53.562
-52.933
-52.264
-51.556
-50.814
-50.039
-49.233
-48.401
-47.545
-46.668
-45.771
-44.856
-43.924
-42.977
-42.02
-41.057
-40.091
-39.126
-38.166
-37.215
-36.279
-35.36
-34.455
-33.567
-32.696
-31.847
-31.031
-30.254
-29.52
-28.833
-28.194
-27.604
-27.058
-26.542
-26.036
-25.52
-24.978
-24.401
-23.788
-23.129
-22.416
-21.634
-20.761
-19.787
-18.711
-17.524
-16.222
-14.82
-13.349
-11.862
-10.442
-9.145
-8.01
-7.079
-6.391
-5.992
-5.938
-6.28
-7.046
-8.274
-10.041
-12.351
-15.138
-18.237
-21.324
-24.075
-26.247
-27.526
-27.556
-26.253
-23.709
-20.265
-16.705
-13.638
-11.403
-10.551
-11.541
-14.223
-18.089
-22.093
-24.433
-23.563
-18.193
-6.598
12.873
40.275
74.223
112.93
153.681
196.376
243.513
293.956
344.085
385.898
407.346
402.896
372.762
322.142
260.705
193.529
123.634
54.575
-9.637
-61.761
-96.622
-114.442
-120.185
-120.883
-121.039
-120.933
-117.479
-108.369
-93.74
-75.403
-56.111
-37.18
-18.711
-0.889
15.84
30.589
42.647
51.936
58.624
62.703
64.251
63.532
61.24
58.599
56.479
55.215
54.956
55.741
57.559
60.411
64.004
67.655
70.91
73.608
75.708
77.352
78.657
79.654
80.499
81.478
82.782
84.532
86.771
89.415
92.395
95.664
99.133
102.722
106.371
110.012
113.612
117.165
120.663
124.113
127.522
130.885
134.193
137.437
140.607
143.71
146.756
149.758
152.74
155.718
158.707
161.728
164.793
167.909
171.079
174.297
177.555
180.847
184.17
187.517
190.884
194.262
197.641
201.01
204.355
207.664
210.92
214.107
217.206
220.202
223.077
225.817
228.406
230.829
233.069
235.11
236.937
238.533
239.883
240.971
241.783
242.306
242.525
242.432
242.015
241.268
240.183
238.755
236.982
234.86
232.391
229.575
226.417
222.921
219.095
214.948
210.49
205.733
200.692
195.381
189.817
184.018
178.004
171.795
165.412
158.877
152.213
145.442
138.587
131.673
124.723
117.759
110.807
103.887
97.022
90.233
83.541
76.965
70.523
64.232
58.108
52.165
46.416
40.873
35.546
30.443
25.572
20.937
16.543
12.392
8.486
4.824
1.404
-1.776
-4.719
-7.432
-9.919
-12.187
-14.245
-16.099
-17.761
-19.238
-20.541
-21.68
-22.665
-23.507
-24.216
-24.803
-25.277
-25.649
-25.928
-26.124
-26.247
-26.303
-26.303
-26.252
-26.159
-26.03
-25.87
-25.685
-25.48
-25.26
-25.027
-24.785
-24.538
-24.288
-24.036
-23.786
-23.539
-23.296
-23.058
-22.826
-22.601
-22.383
-22.172
-21.969
-21.774
-21.587
-21.408
-21.238
-21.077
-20.925
-20.783
-20.65
-20.529
-20.417
-20.317
-20.228
-20.152
-20.088
-20.037
-20
-19.977
-19.97
-19.978
-20.002
-20.042
-20.097
-20.168
-20.254
-20.354
-20.467
-20.593
-20.73
-20.878
-21.036
-21.202
-21.376
-21.556
-21.741
-21.93
-22.121
-22.313
-22.503
-22.69
-22.874
-23.053
-23.226
-23.394
-23.555
-23.709
-23.857
-23.998
-24.133
-24.262
-24.385
-24.505
-24.621
-24.736
-24.853
-24.972
-25.098
-25.232
-25.379
-25.54
-25.719
-25.917
-26.136
-26.38
-26.648
-26.944
-27.266
-27.618
-28
-28.414
-28.861
-29.344
-29.862
-30.415
-31.005
-31.63
-32.287
-32.974
-33.683
-34.41
-35.151
-35.901
-36.654
-37.408
-38.154
-38.888
-39.609
-40.31
-40.986
-41.626
-42.218
-42.751
-43.226
-43.645
-44.015
-44.344
-44.634
-44.895
-45.142
-45.381
-45.615
-45.837
-46.022
-46.161
-46.249
-46.292
-46.306
-46.297
-46.26
-46.187
-46.066
-45.885
-45.639
-45.306
-44.848
-44.249
-43.51
-42.661
-41.763
-40.865
-39.994
-39.17
-38.394
-37.683
-37.064
-36.555
-36.164
-35.898
-35.763
-35.79
-36.038
-36.538
-37.291
-38.257
-39.352
-40.51
-41.69
-42.857
-43.989
-45.049
-46.004
-46.857
-47.641
-48.405
-49.182
-49.955
-50.682
-51.36
-52.024
-52.745
-53.615
-54.687
-56.019
-57.71
-59.836
-62.408
-65.304
-68.24
-70.903
-73.013
-74.273
-74.374
-73.1
-70.417
-66.687
-62.597
-58.785
-55.952
-54.845
-55.997
-59.864
-65.908
-72.034
-76.72
-78.972
-78.273
-75.596
-68.765
-52.722
-23.894
20.357
77.827
141.292
205.899
269.403
330.267
387.125
434.211
461.021
458.911
425.202
362.261
277.635
181.909
82.644
-11.768
-91.083
-150.62
-187.789
-204.812
-211.224
-212.867
-212.316
-209.682
-200.858
-184.796
-163.628
-139.883
-116.779
-95.942
-77.599
-62.245
-50.196
-41.415
-35.557
-31.942
-30.083
-29.684
-30.336
-31.322
-31.768
-31.195
-29.622
-27.298
-24.461
-21.261
-17.847
-14.585
-12.005
-10.373
-9.669
-9.714
-10.238
-11.056
-12.066
-13.073
-13.81
-14.085
-13.768
-12.826
-11.319
-9.282
-6.729
-3.704
-0.268
3.49
7.447
11.514
15.628
19.744
23.841
27.895
31.876
35.764
39.546
43.217
46.786
50.253
53.612
56.864
60.022
63.111
66.184
69.276
72.404
75.584
78.816
82.101
85.439
88.815
92.197
95.556
98.864
102.108
105.29
108.409
111.455
114.422
117.293
120.068
122.764
125.39
127.95
130.453
132.904
135.332
137.789
140.316
142.941
145.669
148.478
151.347
154.255
157.167
160.035
162.794
165.349
167.628
169.578
171.141
172.266
172.88
172.877
172.18
170.732
168.498
165.477
161.671
157.083
151.749
145.729
139.106
131.997
124.494
116.661
108.57
100.288
91.898
83.509
75.207
67.054
59.105
51.396
43.964
36.846
30.052
23.566
17.36
11.382
5.605
0.021
-5.382
-10.61
-15.676
-20.605
-25.406
-30.075
-34.609
-39.008
-43.269
-47.398
-51.387
-55.212
-58.851
-62.277
-65.471
-68.429
-71.145
-73.62
-75.853
-77.847
-79.61
-81.16
-82.508
-83.666
-84.643
-85.448
-86.092
-86.592
-86.964
-87.224
-87.384
-87.456
-87.454
-87.387
-87.265
-87.095
-86.884
-86.637
-86.357
-86.052
-85.726
-85.386
-85.036
-84.68
-84.323
-83.968
-83.618
-83.273
-82.936
-82.605
-82.28
-81.962
-81.648
-81.337
-81.028
-80.72
-80.41
-80.098
-79.78
-79.456
-79.124
-78.783
-78.431
-78.068
-77.693
-77.305
-76.906
-76.496
-76.075
-75.644
-75.204
-74.756
-74.302
-73.842
-73.378
-72.911
-72.443
-71.977
-71.513
-71.054
-70.604
-70.163
-69.736
-69.325
-68.931
-68.559
-68.211
-67.888
-67.594
-67.33
-67.098
-66.9
-66.737
-66.61
-66.521
-66.468
-66.452
-66.472
-66.528
-66.619
-66.742
-66.898
-67.084
-67.298
-67.54
-67.807
-68.098
-68.41
-68.743
-69.093
-69.459
-69.839
-70.231
-70.633
-71.042
-71.458
-71.879
-72.303
-72.728
-73.153
-73.577
-73.998
-74.415
-74.827
-75.233
-75.633
-76.026
-76.413
-76.793
-77.167
-77.535
-77.899
-78.258
-78.614
-78.966
-79.314
-79.66
-80.003
-80.342
-80.678
-81.01
-81.338
-81.661
-81.978
-82.288
-82.588
-82.877
-83.153
-83.414
-83.657
-83.88
-84.081
-84.257
-84.405
-84.524
-84.611
-84.663
-84.678
-84.653
-84.586
-84.474
-84.315
-84.108
-83.85
-83.541
-83.18
-82.766
-82.3
-81.783
-81.219
-80.608
-79.956
-79.266
-78.542
-77.789
-77.015
-76.221
-75.415
-74.6
-73.782
-72.97
-72.169
-71.389
-70.634
-69.912
-69.229
-68.591
-68.002
-67.465
-66.979
-66.548
-66.175
-65.873
-65.651
-65.513
-65.465
-65.507
-65.637
-65.852
-66.141
-66.481
-66.855
-67.241
-67.625
-67.998
-68.351
-68.665
-68.917
-69.071
-69.098
-68.978
-68.695
-68.231
-67.592
-66.797
-65.884
-64.919
-63.954
-63.035
-62.216
-61.547
-61.091
-60.914
-61.064
-61.621
-62.692
-64.338
-66.568
-69.268
-72.169
-74.989
-77.458
-79.236
-79.951
-79.324
-77.24
-74.003
-70.307
-66.815
-64.117
-62.888
-63.702
-66.894
-72.549
-79.161
-84.55
-87.591
-86.416
-80.413
-69.285
-49.098
-17.84
25.084
80.136
142.099
206.98
273.533
338.927
402.235
459.242
500.967
518.44
503.811
455.05
376.511
276.862
167.473
58.534
-40.891
-122.641
-180.974
-212.953
-219.893
-208.256
-187.848
-168.058
-154.686
-148.601
-145.782
-140.364
-128.507
-109.723
-86.879
-64.818
-47.189
-35.052
-27.601
-23.101
-20.405
-19.221
-19.419
-20.513
-21.401
-21.245
-19.777
-17.023
-13.309
-8.944
-4.109
0.76
4.974
8.127
10.078
10.877
10.847
10.27
9.307
8.205
7.248
6.599
6.381
6.648
7.355
8.501
10.096
12.119
14.552
17.366
20.507
23.917
27.516
31.217
34.958
38.697
42.41
46.092
49.733
53.327
56.88
60.393
63.861
67.285
70.653
73.964
77.229
80.47
83.723
87.026
90.409
93.887
97.463
101.13
104.879
108.698
112.569
116.467
120.372
124.268
128.15
132.027
135.901
139.765
143.601
147.378
151.066
154.649
158.12
161.476
164.708
167.806
170.769
173.609
176.344
178.972
181.463
183.758
185.803
187.559
189.004
190.129
190.919
191.352
191.399
191.035
190.251
189.035
187.361
185.189
182.468
179.183
175.358
171.052
166.323
161.211
155.743
149.941
143.842
137.486
130.912
124.148
117.215
110.143
102.978
95.786
88.639
81.579
74.622
67.757
60.979
54.296
47.722
41.272
34.947
28.753
22.703
16.822
11.135
5.659
0.397
-4.66
-9.52
-14.184
-18.637
-22.861
-26.841
-30.569
-34.038
-37.243
-40.175
-42.828
-45.207
-47.326
-49.197
-50.831
-52.234
-53.411
-54.369
-55.119
-55.672
-56.041
-56.239
-56.277
-56.169
-55.928
-55.571
-55.11
-54.556
-53.918
-53.203
-52.423
-51.585
-50.7
-49.775
-48.818
-47.835
-46.836
-45.827
-44.815
-43.805
-42.801
-41.807
-40.828
-39.866
-38.925
-38.006
-37.112
-36.244
-35.403
-34.592
-33.81
-33.059
-32.339
-31.65
-30.993
-30.369
-29.776
-29.216
-28.689
-28.194
-27.733
-27.305
-26.91
-26.55
-26.223
-25.931
-25.673
-25.45
-25.262
-25.108
-24.989
-24.905
-24.855
-24.84
-24.858
-24.91
-24.995
-25.114
-25.264
-25.447
-25.66
-25.902
-26.174
-26.473
-26.798
-27.148
-27.521
-27.915
-28.328
-28.757
-29.201
-29.658
-30.125
-30.599
-31.078
-31.561
-32.044
-32.526
-33.004
-33.476
-33.94
-34.395
-34.839
-35.271
-35.689
-36.093
-36.482
-36.855
-37.212
-37.552
-37.877
-38.185
-38.477
-38.753
-39.015
-39.261
-39.494
-39.715
-39.924
-40.122
-40.313
-40.496
-40.673
-40.846
-41.017
-41.187
-41.357
-41.529
-41.703
-41.881
-42.064
-42.252
-42.446
-42.647
-42.853
-43.066
-43.283
-43.505
-43.731
-43.957
-44.185
-44.41
-44.633
-44.851
-45.062
-45.265
-45.457
-45.637
-45.803
-45.953
-46.086
-46.198
-46.29
-46.359
-46.405
-46.426
-46.421
-46.39
-46.335
-46.256
-46.155
-46.034
-45.895
-45.742
-45.578
-45.405
-45.227
-45.046
-44.864
-44.684
-44.509
-44.345
-44.195
-44.064
-43.954
-43.87
-43.814
-43.788
-43.792
-43.823
-43.88
-43.964
-44.084
-44.245
-44.453
-44.71
-45.019
-45.376
-45.778
-46.215
-46.668
-47.114
-47.534
-47.909
-48.229
-48.483
-48.651
-48.714
-48.641
-48.401
-47.975
-47.344
-46.491
-45.423
-44.158
-42.737
-41.229
-39.691
-38.176
-36.756
-35.484
-34.425
-33.645
-33.184
-33.111
-33.557
-34.594
-36.235
-38.418
-40.92
-43.479
-45.881
-47.779
-48.734
-48.444
-46.791
-43.93
-40.393
-36.871
-33.993
-32.49
-33.321
-36.489
-40.851
-45.186
-47.559
-47.867
-48.478
-49.264
-48.217
-39.901
-15.202
29.883
94.258
172.856
256.112
337.332
412.539
476.189
523.299
547.853
542.606
506.525
442.117
353.329
250.575
143.159
40.925
-43.103
-104.15
-141.799
-159.837
-168.784
-174.032
-176.621
-175.69
-167.209
-150.691
-128.939
-105.062
-82.515
-63.075
-47.242
-35.475
-27.651
-23.353
-21.915
-22.224
-23.444
-24.952
-25.9
-25.59
-23.679
-20.067
-15.071
-9.342
-3.383
2.329
7.2
10.843
13.069
13.82
13.283
11.789
9.657
7.242
4.9
2.844
1.203
0.061
-0.549
-0.585
-0.015
1.148
2.87
5.129
7.908
11.185
14.915
19.008
23.345
27.823
32.375
36.962
41.559
46.143
50.684
55.158
59.558
63.888
68.146
72.327
76.422
80.426
84.355
88.244
92.13
96.05
100.023
104.053
108.139
112.273
116.437
120.613
124.772
128.88
132.916
136.866
140.727
144.505
148.204
151.816
155.326
158.709
161.944
165.021
167.936
170.687
173.286
175.744
178.078
180.321
182.491
184.581
186.567
188.397
190.005
191.348
192.391
193.112
193.498
193.52
193.151
192.371
191.149
189.453
187.245
184.462
181.059
177.031
172.396
167.209
161.551
155.481
149.047
142.3
135.274
128.016
120.572
112.971
105.25
97.458
89.649
81.903
74.293
66.855
59.611
52.555
45.662
38.921
32.329
25.875
19.56
13.387
7.359
1.494
-4.191
-9.688
-14.999
-20.138
-25.123
-29.953
-34.622
-39.117
-43.416
-47.504
-51.37
-54.999
-58.383
-61.518
-64.405
-67.054
-69.479
-71.689
-73.689
-75.487
-77.084
-78.488
-79.709
-80.755
-81.639
-82.373
-82.968
-83.437
-83.794
-84.049
-84.212
-84.29
-84.289
-84.215
-84.074
-83.873
-83.617
-83.312
-82.965
-82.581
-82.166
-81.725
-81.262
-80.781
-80.285
-79.777
-79.26
-78.736
-78.205
-77.672
-77.136
-76.6
-76.065
-75.532
-75.002
-74.476
-73.956
-73.441
-72.933
-72.431
-71.935
-71.447
-70.966
-70.494
-70.03
-69.576
-69.133
-68.7
-68.281
-67.874
-67.483
-67.106
-66.747
-66.405
-66.081
-65.778
-65.496
-65.237
-65.001
-64.79
-64.606
-64.448
-64.318
-64.216
-64.143
-64.097
-64.081
-64.093
-64.133
-64.201
-64.297
-64.419
-64.567
-64.739
-64.935
-65.154
-65.393
-65.65
-65.925
-66.215
-66.518
-66.832
-67.153
-67.48
-67.81
-68.139
-68.464
-68.783
-69.093
-69.389
-69.669
-69.931
-70.17
-70.384
-70.571
-70.729
-70.854
-70.945
-71
-71.017
-70.997
-70.937
-70.837
-70.698
-70.519
-70.303
-70.049
-69.759
-69.435
-69.079
-68.692
-68.277
-67.837
-67.375
-66.893
-66.395
-65.886
-65.369
-64.85
-64.332
-63.82
-63.319
-62.834
-62.369
-61.93
-61.52
-61.145
-60.809
-60.516
-60.271
-60.077
-59.937
-59.855
-59.83
-59.866
-59.961
-60.114
-60.325
-60.591
-60.909
-61.279
-61.695
-62.157
-62.66
-63.202
-63.78
-64.392
-65.032
-65.693
-66.367
-67.048
-67.726
-68.393
-69.038
-69.65
-70.222
-70.745
-71.216
-71.627
-71.971
-72.238
-72.415
-72.495
-72.476
-72.356
-72.136
-71.822
-71.422
-70.955
-70.451
-69.929
-69.402
-68.874
-68.342
-67.802
-67.255
-66.699
-66.13
-65.546
-64.936
-64.3
-63.643
-62.954
-62.218
-61.396
-60.431
-59.287
-57.953
-56.431
-54.745
-52.925
-50.998
-49.013
-47.032
-45.107
-43.283
-41.584
-40.006
-38.572
-37.315
-36.289
-35.58
-35.236
-35.276
-35.705
-36.498
-37.623
-39.039
-40.673
-42.42
-44.204
-45.972
-47.721
-49.495
-51.316
-53.182
-55.068
-56.926
-58.754
-60.578
-62.427
-64.334
-66.306
-68.396
-70.754
-73.504
-76.664
-80.121
-83.568
-86.652
-89.147
-90.764
-91.113
-89.957
-87.246
-83.243
-78.621
-74.16
-70.5
-68.299
-68.383
-70.626
-73.773
-76.466
-76.789
-74.889
-73.263
-71.637
-67.647
-54.899
-23.991
27.435
96.599
176.12
255.291
330.986
402.482
467.13
521.651
555.455
557.265
523.852
456.292
362.076
254.551
143.591
39.347
-47.04
-112.001
-154.433
-177.171
-189.395
-195.658
-197.271
-194.072
-182.492
-162.351
-136.496
-107.949
-80.601
-56.785
-37.355
-23.013
-13.708
-8.905
-7.971
-9.945
-13.749
-18.49
-23.072
-26.361
-27.775
-27.153
-24.605
-20.513
-15.315
-9.392
-3.339
2.151
6.717
10.235
12.745
14.474
15.637
16.416
17.073
17.903
19.064
20.624
22.585
24.876
27.45
30.28
33.321
36.518
39.835
43.245
46.724
50.258
53.814
57.349
60.834
64.252
67.594
70.866
74.073
77.225
80.338
83.434
86.525
89.623
92.735
95.862
99.016
102.209
105.455
108.771
112.168
115.651
119.226
122.89
126.635
130.445
134.297
138.161
142.019
145.859
149.672
153.46
157.218
160.942
164.63
168.271
171.854
175.374
178.814
182.164
185.431
188.622
191.764
194.889
198
201.091
204.148
207.131
210.008
212.737
215.263
217.55
219.567
221.281
222.67
223.703
224.323
224.466
224.051
222.992
221.243
218.777
215.574
211.648
207.02
201.718
195.799
189.3
182.239
174.644
166.54
157.972
149.024
139.795
130.401
120.966
111.581
102.321
93.258
84.437
75.894
67.659
59.743
52.171
45.003
38.281
32.044
26.309
21.053
16.234
11.795
7.674
3.825
0.213
-3.195
-6.419
-9.468
-12.352
-15.072
-17.645
-20.112
-22.511
-24.87
-27.206
-29.51
-31.76
-33.923
-35.97
-37.875
-39.619
-41.193
-42.594
-43.825
-44.897
-45.82
-46.598
-47.225
-47.693
-47.999
-48.145
-48.146
-48.019
-47.789
-47.481
-47.116
-46.715
-46.29
-45.852
-45.405
-44.952
-44.491
-44.023
-43.55
-43.079
-42.611
-42.152
-41.699
-41.252
-40.808
-40.364
-39.915
-39.457
-38.989
-38.509
-38.016
-37.513
-37.001
-36.484
-35.963
-35.44
-34.916
-34.393
-33.871
-33.351
-32.835
-32.325
-31.822
-31.328
-30.846
-30.38
-29.931
-29.503
-29.098
-28.72
-28.371
-28.055
-27.773
-27.53
-27.328
-27.169
-27.056
-26.992
-26.978
-27.016
-27.107
-27.252
-27.451
-27.705
-28.013
-28.373
-28.783
-29.242
-29.746
-30.294
-30.883
-31.508
-32.166
-32.854
-33.567
-34.302
-35.053
-35.816
-36.586
-37.358
-38.127
-38.888
-39.637
-40.368
-41.078
-41.761
-42.413
-43.032
-43.612
-44.152
-44.647
-45.095
-45.494
-45.843
-46.141
-46.386
-46.579
-46.72
-46.81
-46.852
-46.846
-46.796
-46.704
-46.573
-46.408
-46.21
-45.985
-45.737
-45.469
-45.186
-44.892
-44.593
-44.292
-43.993
-43.701
-43.42
-43.153
-42.903
-42.674
-42.467
-42.286
-42.131
-42.004
-41.907
-41.84
-41.803
-41.795
-41.816
-41.864
-41.937
-42.033
-42.148
-42.279
-42.421
-42.572
-42.726
-42.879
-43.025
-43.161
-43.282
-43.383
-43.459
-43.506
-43.519
-43.494
-43.428
-43.316
-43.156
-42.945
-42.682
-42.368
-42.003
-41.589
-41.126
-40.617
-40.066
-39.475
-38.847
-38.184
-37.488
-36.762
-36.011
-35.243
-34.463
-33.675
-32.887
-32.103
-31.332
-30.579
-29.849
-29.142
-28.46
-27.807
-27.193
-26.632
-26.132
-25.697
-25.332
-25.038
-24.816
-24.663
-24.57
-24.516
-24.482
-24.454
-24.422
-24.381
-24.316
-24.208
-24.033
-23.765
-23.391
-22.903
-22.291
-21.555
-20.71
-19.781
-18.809
-17.845
-16.932
-16.118
-15.459
-15.017
-14.854
-15.017
-15.574
-16.608
-18.157
-20.21
-22.666
-25.302
-27.907
-30.31
-32.279
-33.55
-33.953
-33.419
-32.157
-30.703
-29.469
-28.729
-28.905
-30.311
-33.05
-37.222
-41.595
-44.363
-44.94
-42.212
-36.407
-28.054
-13.992
7.925
39.828
82.93
131.933
182.087
229.043
269.547
306.603
340.421
369.082
388.464
388.11
362.76
311.334
235.702
147.139
55.753
-29.154
-96.375
-143.073
-169.832
-180.148
-183.086
-183.447
-182.396
-179.139
-170.142
-154.799
-135.1
-113.357
-92.319
-73.247
-56.441
-42.649
-32.079
-24.539
-19.788
-17.2
-16.228
-16.571
-17.588
-18.264
-17.961
-16.44
-13.721
-10.164
-6.077
-1.624
2.805
6.632
9.509
11.31
12.095
12.141
11.684
10.868
9.894
9.012
8.387
8.133
8.309
8.897
9.878
11.255
13.01
15.103
17.494
20.122
22.906
25.78
28.687
31.583
34.444
37.259
40.013
42.703
45.327
47.881
50.368
52.79
55.143
57.43
59.662
61.863
64.068
66.314
68.623
71.015
73.502
76.088
78.78
81.575
84.462
87.435
90.485
93.606
96.794
100.044
103.342
106.678
110.033
113.39
116.731
120.04
123.295
126.48
129.575
132.564
135.431
138.16
140.734
143.135
145.345
147.346
149.121
150.654
151.928
152.927
153.64
154.053
154.156
153.941
153.4
152.528
151.32
149.775
147.893
145.674
143.122
140.241
137.039
133.523
129.704
125.595
121.207
116.556
111.659
106.534
101.199
95.674
89.98
84.139
78.171
72.101
65.951
59.743
53.501
47.247
41.006
34.799
28.649
22.576
16.601
10.743
5.021
-0.549
-5.95
-11.168
-16.189
-21.001
-25.593
-29.956
-34.081
-37.962
-41.594
-44.973
-48.096
-50.963
-53.573
-55.927
-58.03
-59.885
-61.495
-62.869
-64.011
-64.931
-65.635
-66.135
-66.439
-66.557
-66.501
-66.282
-65.91
-65.399
-64.759
-64.001
-63.139
-62.182
-61.143
-60.033
-58.861
-57.639
-56.377
-55.083
-53.767
-52.438
-51.103
-49.77
-48.447
-47.138
-45.851
-44.59
-43.361
-42.166
-41.01
-39.896
-38.826
-37.802
-36.826
-35.899
-35.021
-34.193
-33.414
-32.683
-32
-31.364
-30.772
-30.223
-29.716
-29.248
-28.817
-28.421
-28.058
-27.726
-27.421
-27.143
-26.889
-26.658
-26.447
-26.255
-26.08
-25.92
-25.775
-25.642
-25.522
-25.411
-25.31
-25.217
-25.132
-25.054
-24.981
-24.915
-24.854
-24.797
-24.745
-24.697
-24.654
-24.614
-24.578
-24.546
-24.518
-24.493
-24.471
-24.453
-24.437
-24.423
-24.411
-24.399
-24.387
-24.374
-24.358
-24.338
-24.312
-24.279
-24.238
-24.187
-24.124
-24.049
-23.961
-23.857
-23.737
-23.601
-23.446
-23.273
-23.08
-22.868
-22.637
-22.385
-22.114
-21.823
-21.513
-21.184
-20.837
-20.473
-20.093
-19.699
-19.29
-18.87
-18.439
-18
-17.556
-17.108
-16.66
-16.214
-15.774
-15.342
-14.921
-14.515
-14.125
-13.754
-13.406
-13.08
-12.78
-12.507
-12.262
-12.046
-11.861
-11.706
-11.582
-11.488
-11.424
-11.391
-11.386
-11.41
-11.46
-11.538
-11.641
-11.769
-11.923
-12.101
-12.304
-12.531
-12.784
-13.062
-13.364
-13.689
-14.036
-14.405
-14.797
-15.213
-15.653
-16.118
-16.61
-17.131
-17.684
-18.271
-18.894
-19.551
-20.244
-20.975
-21.743
-22.551
-23.4
-24.29
-25.225
-26.202
-27.217
-28.266
-29.345
-30.445
-31.56
-32.675
-33.773
-34.846
-35.883
-36.879
-37.834
-38.734
-39.571
-40.334
-41.02
-41.645
-42.227
-42.764
-43.25
-43.668
-44.024
-44.38
-44.791
-45.268
-45.843
-46.539
-47.451
-48.797
-50.691
-53.105
-55.988
-59.219
-62.661
-66.285
-69.828
-72.735
-74.631
-75.263
-74.539
-72.706
-69.895
-66.009
-61.384
-56.798
-52.92
-50.477
-49.899
-51.11
-54.366
-60.159
-67.745
-75.204
-80.761
-82.901
-82.365
-81.563
-80.349
-75.737
-62.256
-34.012
10.731
69.135
135.922
204.751
269.438
324.164
361.925
376.758
367.079
334.849
286.13
227.434
161.295
90.033
16.725
-53.512
-112.388
-154.383
