ecg_data_columns
-34.268
-39.799
-46.218
-53.389
-61.198
-69.515
-78.222
-87.178
-96.145
-104.811
-112.888
-120.145
-126.42
-131.627
-135.685
-138.583
-140.465
-141.468
-141.773
-141.576
-140.915
-139.897
-138.804
-137.768
-136.822
-135.848
-134.301
-131.674
-127.808
-122.305
-114.632
-104.833
-93.12
-80.252
-68.097
-58.142
-51.302
-48.98
-52.178
-60.321
-71.997
-84.594
-93.731
-95.556
-86.679
-62.491
-18.804
44.55
124.243
215.79
312.468
412.802
521.355
635.174
745.906
837.912
886.156
876.157
807.091
686.981
534.167
366.556
196.415
37.425
-95.152
-191.258
-245.411
-262.794
-260.576
-251.168
-240.832
-229.96
-211.596
-184.777
-154.564
-125.443
-102.202
-86.651
-77.452
-73.723
-74.948
-79.2
-83.552
-86.269
-86.739
-84.876
-81.343
-76.312
-69.147
-60.417
-51.756
-44.115
-38.044
-33.666
-30.442
-28.215
-27.313
-27.547
-28.331
-29.185
-29.573
-29.244
-28.312
-26.765
-24.503
-21.501
-17.753
-13.317
-8.346
-2.93
2.9
9.1
15.643
22.464
29.458
36.52
43.546
50.461
57.225
63.802
70.163
76.285
82.14
87.725
93.059
98.15
102.997
107.593
111.924
115.987
119.795
123.358
126.681
129.766
132.607
135.2
137.544
139.635
141.465
143.024
144.299
145.283
145.972
146.363
146.454
146.243
145.727
144.905
143.778
142.346
140.611
138.571
136.229
133.586
130.647
127.417
123.902
120.108
116.043
111.716
107.138
102.318
97.269
92.001
86.529
80.865
75.026
69.026
62.881
56.608
50.225
43.75
37.202
30.6
23.963
17.311
10.663
4.041
-2.537
-9.051
-15.48
-21.806
-28.01
-34.073
-39.977
-45.705
-51.241
-56.571
-61.68
-66.557
-71.191
-75.571
-79.691
-83.543
-87.122
-90.425
-93.45
-96.194
-98.661
-100.853
-102.773
-104.427
-105.823
-106.967
-107.87
-108.543
-108.996
-109.244
-109.298
-109.174
-108.887
-108.454
-107.891
-107.215
-106.443
-105.593
-104.681
-103.724
-102.738
-101.736
-100.734
-99.745
-98.781
-97.856
-96.979
-96.159
-95.406
-94.726
-94.126
-93.609
-93.178
-92.834
-92.577
-92.406
-92.318
-92.31
-92.379
-92.517
-92.72
-92.981
-93.293
-93.649
-94.04
-94.454
-94.884
-95.319
-95.752
-96.174
-96.574
-96.947
-97.288
-97.595
-97.868
-98.107
-98.31
-98.48
-98.618
-98.727
-98.811
-98.865
-98.89
-98.888
-98.866
-98.836
-98.806
-98.784
-98.778
-98.798
-98.856
-98.964
-99.122
-99.325
-99.573
-99.873
-100.243
-100.716
-101.313
-102.044
-102.918
-103.939
-105.103
-106.401
-107.801
-109.245
-110.686
-112.084
-113.415
-114.676
-115.837
-116.853
-117.671
-118.224
-118.468
-118.377
-117.913
-117.072
-115.889
-114.425
-112.78
-111.074
-109.403
-107.887
-106.646
-105.771
-105.367
-105.515
-106.34
-108.109
-110.949
-114.763
-119.315
-124.1
-128.56
-132.298
-134.733
-134.971
-132.568
-127.737
-121.158
-114.228
-108.51
-105.184
-105.541
-111.18
-121.352
-132.556
-141.48
-145.131
-144.821
-145.134
-144.8
-135.321
-101.225
-28.835
82.085
219.712
362.77
495.601
616.843
726.563
826.368
907.629
945.031
922.193
831.413
679.181
495.475
308.307
141.857
13.366
-79.089
-142.609
-187.645
-225.17
-257.1
-281.015
-292.092
-286.894
-267.442
-238.981
-208.058
-178.889
-152.6
-129.775
-110.995
-97.043
-88.981
-86.786
-89.288
-95.616
-105.221
-116.973
-129.343
-140.902
-150.1
-156.102
-159.01
-158.973
-156.264
-151.717
-146.445
-141.36
-137.298
-134.67
-133.388
-133.294
-134.076
-135.215
-136.121
-136.374
-135.727
-134.097
-131.556
-128.176
-124.044
-119.289
-114.059
-108.462
-102.549
-96.362
-89.928
-83.314
-76.634
-69.983
-63.435
-57.053
-50.873
-44.929
-39.257
-33.877
-28.786
-23.993
-19.512
-15.362
-11.575
-8.172
-5.161
-2.548
-0.333
1.485
2.906
3.93
4.558
4.787
4.612
4.028
3.029
1.611
-0.223
-2.466
-5.111
-8.147
-11.566
-15.354
-19.497
-23.981
-28.791
-33.913
-39.331
-45.028
-50.985
-57.182
-63.601
-70.22
-77.02
-83.98
-91.08
-98.297
-105.613
-113.007
-120.46
-127.952
-135.462
-142.973
-150.464
-157.918
-165.315
-172.638
-179.868
-186.988
-193.979
-200.826
-207.512
-214.02
-220.334
-226.441
-232.326
-237.975
-243.376
-248.517
-253.386
-257.972
-262.266
-266.258
-269.939
-273.301
-276.336
-279.037
-281.398
-283.413
-285.077
-286.386
-287.336
-287.924
-288.148
-288.007
-287.5
-286.626
-285.388
-283.785
-281.82
-279.497
-276.819
-273.792
-270.42
-266.711
-262.671
-258.308
-253.629
-248.642
-243.355
-237.776
-231.914
-225.778
-219.376
-212.718
-205.813
-198.672
-191.304
-183.72
-175.93
-167.942
-159.768
-151.416
-142.896
-134.217
-125.388
-116.415
-107.305
-98.065
-88.703
-79.224
-69.633
-59.934
-50.131
-40.23
-30.238
-20.159
-9.994
0.254
10.589
21.007
31.506
42.083
52.736
63.461
74.254
85.105
96.001
106.93
117.888
128.87
139.879
150.909
161.945
172.969
183.953
194.874
205.708
216.427
227.003
237.41
247.63
257.655
267.491
277.135
286.583
295.817
304.798
313.513
321.959
330.166
338.203
346.11
353.892
361.542
369.023
376.323
383.5
390.529
397.287
403.761
409.991
416.221
422.962
430.417
438.416
446.734
455.054
462.999
470.29
476.165
479.324
479.196
475.965
470.306
463.497
456.655
450.509
446.37
446.094
450.665
460.236
474.067
490.401
507.85
525.548
542.234
556.377
566.972
573.491
576.281
576.691
575.797
574.365
573.293
573.346
575.179
579.509
586.419
595.002
604.053
612.029
617.311
618.985
616.276
607.985
593.542
573.879
551.321
529.615
512.974
504.814
508.467
527.893
566.917
626.205
702.186
789.908
883.495
980.565
1084.427
1194.471
1303.69
1399.959
1462.238
1471.171
1419.613
1307.887
1149.214
967.737
785.07
623.655
499.621
415.201
366.343
340.807
325.511
315.908
312.437
319.335
339.209
368.343
399.704
426.611
445.924
457.715
463.164
464.027
461.343
456.384
451.942
449.772
450.155
452.982
457.555
463.114
469.636
476.878
483.536
488.771
492.356
494.17
494.636
494.154
492.644
490.132
487.073
483.868
480.889
478.46
476.57
475.197
474.432
474.322
474.878
476.072
477.797
479.943
482.463
485.313
488.454
491.83
495.349
498.902
502.381
505.703
508.819
511.69
514.282
516.573
518.537
520.171
521.493
522.514
523.235
523.655
523.763
523.557
523.051
522.258
521.188
519.848
518.233
516.337
514.155
511.674
508.879
505.754
502.279
498.44
494.23
489.646
484.691
479.361
473.651
467.55
461.042
454.115
446.767
439.005
430.843
422.312
413.458
404.327
394.973
385.435
375.738
365.884
355.852
345.616
335.146
324.431
313.491
302.338
290.981
279.418
267.635
255.588
243.214
230.433
217.147
203.295
188.854
173.862
158.412
142.633
126.685
110.697
94.758
78.951
63.348
48.026
33.067
18.581
4.698
-8.423
-20.59
-31.653
-41.516
-50.159
-57.643
-64.084
-69.658
-74.512
-78.762
-82.506
-85.818
-88.766
-91.415
-93.839
-96.124
-98.388
-100.79
-103.461
-106.505
-109.964
-113.821
-118.007
-122.408
-126.926
-131.478
-136.002
-140.464
-144.841
-149.12
-153.297
-157.373
-161.323
-165.097
-168.65
-171.939
-174.95
-177.697
-180.215
-182.561
-184.785
-186.935
-189.049
-191.146
-193.239
-195.33
-197.408
-199.458
-201.473
-203.456
-205.415
-207.36
-209.298
-211.227
-213.145
-215.045
-216.919
-218.754
-220.541
-222.274
-223.951
-225.578
-227.162
-228.718
-230.257
-231.795
-233.346
-234.92
-236.521
-238.154
-239.816
-241.505
-243.221
-244.96
-246.721
-248.504
-250.312
-252.154
-254.045
-255.991
-257.995
-260.054
-262.152
-264.287
-266.464
-268.681
-270.948
-273.285
-275.721
-278.312
-281.12
-284.179
-287.508
-291.106
-294.938
-298.983
-303.209
-307.565
-312.029
-316.574
-321.165
-325.81
-330.497
-335.168
-339.75
-344.113
-348.095
-351.593
-354.528
-356.822
-358.475
-359.497
-359.936
-359.925
-359.553
-358.877
-357.948
-356.749
-355.279
-353.631
-351.918
-350.296
-349.001
-348.243
-348.239
-349.272
-351.516
-355.039
-359.853
-365.885
-373.103
-381.561
-391.293
-402.315
-414.686
-428.497
-443.732
-460.196
-477.365
-494.381
-510.387
-524.67
-536.478
-544.933
-549.516
-550.323
-548.193
-544.813
-541.685
-539.766
-540.302
-544.833
-554.202
-566.586
-577.458
-581.561
-575.279
-560.611
-541.853
-518.146
-483.777
-427.602
-337.961
-213.758
-62.476
103.381
268.716
421.063
548.921
639.452
676.615
646.831
543.945
369.505
143.438
-103.649
-338.519
-525.135
-648.049
-711.173
-730.337
-735.038
-742.197
-754.069
-766.634
-767.889
-754.187
-731.023
-704.365
-680.291
-660.941
-644.921
-631.128
-618.953
-607.71
-596.519
-584.841
-573.539
-563.746
-556.199
-551.091
-547.496
-544.729
-542.892
-541.757
-540.382
-538.016
-534.156
-528.832
-523.03
-517.417
-512.029
-507.008
-502.498
-498.461
-494.921
-491.632
-487.923
-483.415
-477.99
-471.555
-464.202
-456.041
-447.092
-437.481
-427.404
-416.977
-406.313
-395.503
-384.585
-373.65
-362.786
-352.049
-341.499
-331.171
-321.076
-311.227
-301.616
-292.211
-282.996
-273.962
-265.1
-256.415
-247.904
-239.557
-231.371
-223.34
-215.459
-207.723
-200.124
-192.654
-185.316
-178.112
-171.051
-164.145
-157.4
-150.82
-144.408
-138.166
-132.099
-126.207
-120.494
-114.959
-109.608
-104.445
-99.478
-94.715
-90.163
-85.825
-81.71
-77.821
-74.163
-70.74
-67.554
-64.605
-61.895
-59.421
-57.181
-55.173
-53.389
-51.823
-50.467
-49.31
-48.343
-47.553
-46.925
-46.446
-46.1
-45.869
-45.737
-45.686
-45.695
-45.745
-45.816
-45.888
-45.939
-45.948
-45.894
-45.755
-45.51
-45.139
-44.621
-43.938
-43.07
-42.003
-40.72
-39.209
-37.459
-35.46
-33.205
-30.691
-27.914
-24.874
-21.575
-18.019
-14.213
-10.165
-5.885
-1.385
3.322
8.221
13.294
18.524
23.892
29.378
34.961
40.62
46.334
52.081
57.839
63.586
69.3
74.961
80.545
86.034
91.407
96.645
101.731
106.649
111.384
115.924
120.259
124.378
128.276
131.946
135.384
138.589
141.558
144.295
146.802
149.084
151.147
152.999
154.65
156.111
157.396
158.515
159.483
160.312
161.017
161.614
162.116
162.538
162.895
163.203
163.478
163.734
163.986
164.247
164.531
164.848
165.211
165.63
166.112
166.665
167.294
168.006
168.804
169.693
170.673
171.742
172.9
174.141
175.461
176.852
178.299
179.79
181.31
182.845
184.379
185.895
187.378
188.81
190.181
191.479
192.69
193.8
194.79
195.641
196.339
196.869
197.216
197.367
197.304
197.024
196.527
195.814
194.883
193.721
192.301
190.605
188.631
186.375
183.841
181.047
178.011
174.776
171.413
167.986
164.551
161.153
157.807
154.549
151.424
148.489
145.82
143.469
141.456
139.817
138.572
137.679
137.082
136.658
136.225
135.66
134.854
133.675
132.025
129.778
126.796
122.994
118.245
112.351
105.245
96.999
87.886
78.536
69.639
61.78
55.692
52.207
51.851
54.698
60.144
66.702
72.764
77.18
78.884
76.725
70.174
59.84
47.77
37.664
33.654
39.529
59.058
96.227
154.709
234.176
329.814
435.904
545.653
658.151
779.026
905.361
1027.24
1125.673
1171.466
1149.061
1058.834
911.986
731.641
538.388
345.545
166.731
16.344
-96.52
-167.399
-201.512
-215.263
-220.001
-220.424
-215.319
-197.624
-166.343
-125.853
-81.802
-40.754
-5.815
21.882
40.857
51.118
53.28
48.352
38.517
25.479
10.681
-3.589
-15.318
-23.373
-27.131
-26.813
-23.363
-17.476
-10.043
-2.504
4.096
9.167
12.41
14.044
14.535
14.268
13.749
13.623
14.277
15.895
18.547
22.12
26.489
31.569
37.23
43.325
49.766
56.495
63.459
70.625
77.921
85.237
92.49
99.617
106.568
113.317
119.839
126.111
132.122
137.881
143.385
148.622
153.577
158.226
162.555
166.561
170.243
173.6
176.629
179.329
181.696
183.724
185.405
186.726
187.674
188.234
188.398
188.157
187.508
186.448
184.974
183.083
180.775
178.051
174.91
171.352
167.378
162.988
158.187
152.979
147.37
141.368
134.98
128.216
121.089
113.609
105.792
97.651
89.202
80.462
71.45
62.185
52.688
42.98
33.084
23.024
12.824
2.51
-7.893
-18.356
-28.854
-39.357
-49.84
-60.274
-70.632
-80.888
-91.015
-100.986
-110.776
-120.361
-129.715
-138.816
-147.642
-156.172
-164.387
-172.269
-179.802
-186.973
-193.768
-200.178
-206.193
-211.806
-217.012
-221.808
-226.192
-230.165
-233.729
-236.889
-239.651
-242.023
-244.016
-245.642
-246.913
-247.845
-248.452
-248.753
-248.765
-248.507
-247.997
-247.256
-246.304
-245.163
-243.854
-242.398
-240.817
-239.134
-237.368
-235.54
-233.671
-231.779
-229.884
-228.002
-226.151
-224.346
-222.603
-220.935
-219.356
-217.877
-216.508
-215.258
-214.134
-213.141
-212.283
-211.562
-210.977
-210.528
-210.21
-210.022
-209.958
-210.011
-210.174
-210.437
-210.792
-211.226
-211.727
-212.283
-212.878
-213.498
-214.128
-214.753
-215.358
-215.929
-216.449
-216.904
-217.28
-217.563
-217.739
-217.795
-217.717
-217.494
-217.115
-216.572
-215.856
-214.96
-213.88
-212.616
-211.17
-209.549
-207.756
-205.798
-203.684
-201.425
-199.032
-196.514
-193.878
-191.131
-188.282
-185.347
-182.343
-179.285
-176.188
-173.067
-169.94
-166.825
-163.737
-160.686
-157.672
-154.699
-151.78
-148.937
-146.209
-143.623
-141.199
-138.951
-136.888
-135.011
-133.309
-131.749
-130.269
-128.811
-127.329
-125.789
-124.173
-122.45
-120.574
-118.487
-116.119
-113.418
-110.34
-106.855
-102.973
-98.74
-94.244
-89.623
-85.028
-80.618
-76.574
-73.045
-70.152
-68.013
-66.678
-66.279
-67.107
-69.286
-72.767
-77.367
-82.552
-87.767
-92.642
-96.448
-98.09
-96.975
-93.043
-86.662
-79.1
-71.827
-65.919
-63.046
-65.62
-72.859
-80.724
-86.011
-84.189
-76.926
-73.85
-75.546
-76.803
-63.859
-11.021
92.483
244.321
433.658
634.63
827.56
996.417
1122.69
1193.021
1192.885
1115.531
965.47
758.978
526.128
296.137
98.127
-48.579
-145.577
-198.953
-223.027
-234.078
-232.673
-221.151
-202.9
-177.342
-154.335
-138.469
-124.901
-111.168
-90.395
-60.65
-29.154
-0.833
20.028
32.2
39.051
41.729
40.146
34.663
25.611
15.05
5.582
-1.618
-6.069
-7.44
-5.786
-1.208
5.702
13.414
20.628
26.727
31.48
35.106
37.904
40.015
41.789
43.838
46.57
50.209
54.81
60.179
66.161
72.688
79.645
86.921
94.428
102.069
109.775
117.497
125.179
132.774
140.239
147.528
154.621
161.502
168.167
174.637
180.921
187.015
192.915
198.603
204.062
209.291
214.289
219.053
223.586
227.884
231.946
235.776
239.37
242.722
245.819
248.642
251.179
253.421
255.36
256.993
258.314
259.319
260.005
260.372
260.418
260.14
259.534
258.598
257.329
255.729
253.798
251.539
248.957
246.057
242.845
239.329
235.521
231.428
227.062
222.435
217.559
212.45
207.123
201.594
195.883
190.008
183.99
177.852
171.617
165.307
158.945
152.555
146.161
139.786
133.452
127.181
120.997
114.919
108.97
103.17
97.538
92.09
86.845
81.818
77.021
72.468
68.167
64.128
60.358
56.862
53.645
50.708
48.053
45.678
43.58
41.755
40.196
38.896
37.843
37.027
36.434
36.051
35.863
35.854
36.008
36.308
36.737
37.277
37.912
38.623
39.393
40.204
41.039
41.883
42.721
43.536
44.315
45.044
45.712
46.305
46.815
47.231
47.543
47.745
47.83
47.794
47.631
47.341
46.92
46.368
45.687
44.879
43.948
42.899
41.736
40.466
39.097
37.637
36.096
34.483
32.807
31.079
29.311
27.514
25.698
23.875
22.054
20.244
18.458
16.705
14.993
13.331
11.727
10.188
8.721
7.33
6.016
4.778
3.615
2.525
1.504
0.55
-0.345
-1.184
-1.969
-2.702
-3.386
-4.026
-4.637
-5.229
-5.809
-6.387
-6.971
-7.57
-8.201
-8.868
-9.568
-10.302
-11.076
-11.909
-12.837
-13.885
-15.065
-16.388
-17.86
-19.482
-21.258
-23.172
-25.177
-27.236
-29.311
-31.382
-33.45
-35.495
-37.47
-39.31
-40.935
-42.296
-43.376
-44.159
-44.633
-44.813
-44.745
-44.517
-44.261
-44.092
-44.119
-44.46
-45.245
-46.641
-48.806
-51.964
-56.406
-62.273
-69.518
-77.858
-86.731
-95.532
-103.767
-110.802
-115.833
-118.405
-118.573
-117.197
-115.936
-116.435
-119.917
-127.374
-139.747
-157.475
-179.883
-204.467
-227.187
-243.629
-249.413
-240.512
-213.002
-162.859
-89.16
4.075
111.581
227.199
347.642
476.503
613.666
750.873
873.732
957.875
980.168
933.144
818.725
650.14
453.314
248.563
56.538
-100.222
-215.151
-286.885
-322.059
-340.341
-351.821
-359.96
-364.664
-358.136
-339.449
-313.998
-287.243
-265.366
-250.629
-241.658
-236.995
-235.04
-234.143
-232.789
-229.28
-222.725
-213.377
-201.947
-189.371
-176.459
-163.823
-152.216
-142.457
-134.953
-129.696
-126.454
-124.781
-124.313
-124.815
-125.951
-127.372
-128.763
-129.782
-130.223
-129.998
-129.019
-127.242
-124.646
-121.193
-116.907
-111.879
-106.191
-99.935
-93.203
-86.056
-78.586
-70.909
-63.144
-55.426
-47.855
-40.489
-33.38
-26.564
-20.063
-13.905
-8.091
-2.597
2.587
7.466
12.039
16.293
20.228
23.85
27.168
30.185
32.902
35.314
37.418
39.21
40.686
41.837
42.651
43.115
43.221
42.967
42.352
41.378
40.046
38.359
36.324
33.947
31.238
28.202
24.849
21.186
17.225
12.977
8.458
3.681
-1.338
-6.582
-12.033
-17.672
-23.48
-29.437
-35.523
-41.719
-48.004
-54.357
-60.757
-67.185
-73.619
-80.041
-86.429
-92.765
-99.031
-105.21
-111.284
-117.239
-123.06
-128.733
-134.248
-139.593
-144.759
-149.737
-154.518
-159.098
-163.469
-167.63
-171.576
-175.306
-178.82
-182.118
-185.202
-188.075
-190.74
-193.203
-195.467
-197.538
-199.423
-201.127
-202.659
-204.024
-205.231
-206.287
-207.199
-207.976
-208.623
-209.149
-209.561
-209.864
-210.065
-210.169
-210.181
-210.105
-209.945
-209.704
-209.384
-208.986
-208.513
-207.966
-207.345
-206.651
-205.883
-205.042
-204.126
-203.136
-202.068
-200.923
-199.696
-198.387
-196.994
-195.516
-193.95
-192.295
-190.55
-188.712
-186.781
-184.757
-182.637
-180.42
-178.105
-175.693
-173.182
-170.576
-167.874
-165.078
-162.191
-159.216
-156.158
-153.021
-149.81
-146.529
-143.183
-139.78
-136.325
-132.827
-129.291
-125.727
-122.146
-118.562
-114.987
-111.437
-107.925
-104.464
-101.069
-97.754
-94.531
-91.408
-88.392
-85.492
-82.721
-80.095
-77.626
-75.324
-73.198
-71.257
-69.51
-67.966
-66.623
-65.472
-64.507
-63.729
-63.15
-62.8
-62.692
-62.83
-63.213
-63.835
-64.683
-65.743
-66.974
-68.311
-69.695
-71.076
-72.417
-73.713
-74.928
-76.003
-76.871
-77.44
-77.652
-77.478
-76.884
-75.857
-74.423
-72.628
-70.568
-68.391
-66.226
-64.199
-62.458
-61.114
-60.306
-60.183
-60.928
-62.822
-66.007
-70.379
-75.631
-81.204
-86.469
-90.97
-94.153
-95.123
-93.348
-88.99
-82.86
-76.631
-72.014
-69.901
-70.997
-76.369
-86.452
-100.278
-115.398
-127.702
-132.737
-127.047
-107.362
-69.882
-11.03
69.338
166.933
276.039
389.809
505.958
629.474
760.663
893.685
1016.05
1100.929
1123.841
1073.396
946.818
762.742
552.631
343.645
163.765
29.287
-60.846
-112.258
-139.025
-156.924
-170.823
-181.458
-185.08
-175.171
-152.397
-121.226
-87.034
-55.865
-30.127
-9.326
7.21
20.342
30.554
37.956
43.463
48.345
53.63
59.686
66.321
73.353
80.932
89.443
98.808
108.389
117.228
124.739
130.906
135.868
139.713
142.314
143.646
144.104
144.405
145.128
146.549
148.738
151.629
155.262
159.742
165.039
171.02
177.531
184.437
191.681
199.265
207.151
215.251
223.449
231.606
239.631
247.475
255.103
262.492
269.621
276.469
283.039
289.353
295.422
301.249
306.828
312.138
317.17
321.923
326.4
330.607
334.543
338.2
341.568
344.636
347.391
349.818
351.899
353.61
354.936
355.865
356.386
356.493
356.179
355.44
354.271
352.67
350.635
348.166
345.262
341.924
338.155
333.963
329.354
324.337
318.926
313.134
306.978
300.475
293.645
286.508
279.088
271.407
263.492
255.367
247.059
238.597
230.007
221.32
212.562
203.764
194.953
186.158
177.405
168.72
160.13
151.659
143.329
135.162
127.18
119.401
111.843
104.523
97.455
90.651
84.122
77.876
71.919
66.254
60.883
55.805
51.017
46.515
42.293
38.343
34.654
31.215
28.015
25.04
22.276
19.706
17.315
15.086
13.004
11.051
9.21
7.466
5.801
4.201
2.648
1.129
-0.372
-1.869
-3.374
-4.9
-6.459
-8.058
-9.709
-11.416
-13.186
-15.023
-16.93
-18.908
-20.957
-23.078
-25.268
-27.524
-29.841
-32.216
-34.641
-37.11
-39.615
-42.147
-44.698
-47.26
-49.823
-52.38
-54.92
-57.434
-59.913
-62.348
-64.732
-67.054
-69.308
-71.482
-73.573
-75.572
-77.474
-79.275
-80.973
-82.565
-84.055
-85.447
-86.744
-87.954
-89.082
-90.135
-91.123
-92.053
-92.93
-93.761
-94.554
-95.315
-96.059
-96.801
-97.551
-98.322
-99.125
-99.973
-100.878
-101.852
-102.892
-103.999
-105.181
-106.449
-107.834
-109.361
-111.039
-112.877
-114.879
-117.037
-119.339
-121.757
-124.228
-126.696
-129.111
-131.43
-133.638
-135.714
-137.612
-139.278
-140.644
-141.648
-142.273
-142.504
-142.319
-141.748
-140.853
-139.749
-138.628
-137.651
-136.947
-136.656
-136.909
-137.854
-139.664
-142.476
-146.446
-151.78
-158.548
-166.687
-175.947
-185.766
-195.48
-204.449
-211.878
-216.878
-218.846
-217.576
-213.559
-208.02
-202.348
-197.779
-195.456
-196.531
-201.791
-210.997
-222.269
-232.398
-237.558
-233.633
-216.669
-182.643
-127.317
-49.313
47.949
159.514
279.228
403.092
534.069
673.147
813.242
940.59
1030.582
1057.128
1009.712
889.818
711.098
500.218
279.525
68.717
-109.876
-244.979
-332.835
-374.395
-385.533
-380.637
-365.32
-347.683
-327.068
-302.801
-282.593
-265.794
-252.357
-242.95
-232.523
-222.748
-215.655
-210.018
-206.157
-201.399
-193.483
-183.035
-170.652
-157.436
-144.53
-132.366
-121.518
-112.747
-106.348
-102.218
-100.049
-99.36
-99.765
-100.998
-102.727
-104.563
-106.145
-107.16
-107.423
-106.856
-105.396
-103.008
-99.674
-95.39
-90.216
-84.253
-77.595
-70.345
-62.597
-54.431
-45.955
-37.293
-28.57
-19.914
-11.418
-3.137
4.88
12.603
20.011
27.089
33.842
40.295
46.456
52.331
57.919
63.212
68.213
72.928
77.36
81.514
85.387
88.974
92.27
95.269
97.961
100.336
102.38
104.079
105.422
106.403
107.017
107.261
107.133
106.631
105.753
104.504
102.882
100.89
98.528
95.799
92.707
89.258
85.459
81.316
76.841
72.043
66.937
61.537
55.859
49.919
43.735
37.328
30.717
23.924
16.971
9.882
2.679
-4.613
-11.968
-19.361
-26.768
-34.162
-41.52
-48.815
-56.025
-63.124
-70.091
-76.904
-83.542
-89.984
-96.212
-102.205
-107.948
-113.425
-118.621
-123.525
-128.125
-132.413
-136.382
-140.028
-143.348
-146.34
-149.006
-151.349
-153.372
-155.082
-156.486
-157.594
-158.415
-158.962
-159.247
-159.286
-159.093
-158.684
-158.075
-157.282
-156.321
-155.21
-153.963
-152.598
-151.129
-149.572
-147.943
-146.256
-144.527
-142.767
-140.992
-139.212
-137.44
-135.685
-133.956
-132.261
-130.605
-128.995
-127.434
-125.925
-124.472
-123.074
-121.733
-120.448
-119.217
-118.038
-116.908
-115.821
-114.772
-113.757
-112.77
-111.805
-110.858
-109.923
-108.994
-108.07
-107.144
-106.215
-105.276
-104.324
-103.355
-102.365
-101.352
-100.311
-99.241
-98.141
-97.013
-95.865
-94.701
-93.528
-92.351
-91.18
-90.022
-88.885
-87.772
-86.682
-85.619
-84.585
-83.59
-82.64
-81.743
-80.901
-80.12
-79.403
-78.755
-78.178
-77.664
-77.201
-76.781
-76.406
-76.092
-75.864
-75.741
-75.731
-75.836
-76.058
-76.396
-76.838
-77.348
-77.868
-78.338
-78.707
-78.943
-79.017
-78.886
-78.498
-77.777
-76.643
-75.039
-72.927
-70.295
-67.146
-63.509
-59.429
-54.991
-50.348
-45.683
-41.196
-37.085
-33.537
-30.702
-28.794
-28.141
-28.931
-31.164
-34.597
-38.625
-42.622
-46.143
-48.623
-49.312
-47.761
-43.906
-38.415
-33.004
-29.385
-28.815
-32.447
-41.135
-55.04
-73.503
-94.157
-112.715
-124.618
-125.296
-110.19
-75.458
-17.58
64.511
167.057
283.997
408.075
534.324
664.935
801.03
937.721
1063.66
1153.166
1178.776
1125.715
988.576
783.413
543.732
300.175
85.892
-75.29
-181.428
-237.196
-258.312
-266.611
-270.22
-270.68
-264.604
-243.789
-208.868
-166.889
-124.867
-89.322
-62.803
-44.571
-33.64
-29.191
-29.465
-31.425
-32.555
-31.702
-28.484
-23.337
-16.646
-8.018
1.997
11.657
19.618
25.058
27.764
28.335
27.187
24.242
19.821
14.617
9.263
4.432
0.484
-2.616
-4.847
-6.124
-6.397
-5.599
-3.714
-0.805
3.042
7.702
13.058
19.019
25.461
32.254
39.254
46.289
53.253
60.112
66.835
73.417
79.832
86.016
91.931
97.556
102.89
107.965
112.796
117.373
121.704
125.8
129.679
133.369
136.869
140.149
143.183
145.946
148.42
150.598
152.467
154.008
155.203
156.039
156.502
156.589
156.29
155.595
154.495
152.983
151.057
148.721
145.982
142.842
139.31
135.391
131.096
126.44
121.434
116.093
110.43
104.464
98.213
91.698
84.94
77.964
70.791
63.449
55.961
48.355
40.657
32.892
25.089
17.274
9.473
1.71
-5.987
-13.597
-21.094
-28.457
-35.664
-42.696
-49.534
-56.161
-62.56
-68.717
-74.621
-80.26
-85.626
-90.711
-95.513
-100.025
-104.248
-108.181
-111.825
-115.184
-118.262
-121.065
-123.6
-125.876
-127.902
-129.689
-131.248
-132.59
-133.727
-134.672
-135.437
-136.036
-136.482
-136.787
-136.964
-137.027
-136.989
-136.86
-136.655
-136.384
-136.059
-135.69
-135.284
-134.852
-134.401
-133.936
-133.464
-132.987
-132.51
-132.035
-131.565
-131.101
-130.644
-130.193
-129.749
-129.311
-128.878
-128.449
-128.022
-127.595
-127.167
-126.737
-126.303
-125.864
-125.418
-124.962
-124.495
-124.015
-123.519
-123.006
-122.471
-121.911
-121.324
-120.708
-120.062
-119.385
-118.676
-117.935
-117.167
-116.377
-115.57
-114.752
-113.928
-113.105
-112.29
-111.49
-110.705
-109.938
-109.189
-108.461
-107.759
-107.088
-106.451
-105.854
-105.299
-104.79
-104.336
-103.934
-103.576
-103.26
-102.979
-102.741
-102.569
-102.478
-102.475
-102.57
-102.763
-103.047
-103.408
-103.805
-104.171
-104.443
-104.562
-104.486
-104.194
-103.653
-102.822
-101.65
-100.069
-98.043
-95.557
-92.59
-89.127
-85.207
-80.924
-76.44
-71.996
-67.783
-63.943
-60.62
-57.955
-56.112
-55.279
-55.623
-57.238
-60.242
-64.838
-71.055
-78.745
-87.466
-96.335
-104.42
-110.975
-115.133
-115.965
-113.179
-106.917
-98.061
-88.627
-80.306
-74.224
-71.774
-73.954
-80.347
-89.599
-98.715
-102.885
-97.738
-79.221
-42.885
15.244
95.577
194.458
306.565
424.324
544.913
672.996
808.02
943.674
1065.426
1142.67
1149.944
1075.191
916.573
698.992
457.699
224.52
32.79
-105.061
-193.933
-244.428
-276.818
-301.884
-318.736
-323.143
-307.199
-270.723
-221.307
-167.91
-119.798
-81.519
-54.064
-38.495
-34.321
-39.613
-51.679
-66.351
-79.754
-90.122
-96.424
-97.489
-92.951
-83.17
-69.157
-53.138
-37.426
-23.109
-10.773
-0.899
6.475
11.376
14.001
15.168
15.847
16.649
18
20.11
22.969
26.637
31.175
36.52
42.571
49.224
56.375
63.982
72.042
80.518
89.349
98.438
107.656
116.878
125.984
134.89
143.535
151.864
159.833
167.408
174.562
181.297
187.626
193.546
199.049
204.128
208.774
212.998
216.818
220.247
223.295
225.969
228.269
230.203
231.776
232.99
233.844
234.336
234.462
234.227
233.635
232.696
231.416
229.805
227.871
225.626
223.082
220.251
217.145
213.775
210.151
206.286
202.192
197.882
193.367
188.66
183.774
178.722
173.518
168.174
162.702
157.115
151.425
145.646
139.789
133.865
127.888
121.868
115.819
109.753
103.682
97.618
91.572
85.557
79.582
73.659
67.798
62.007
56.295
50.67
45.142
39.716
34.402
29.205
24.131
19.187
14.376
9.703
5.17
0.781
-3.465
-7.565
-11.52
-15.329
-18.993
-22.514
-25.892
-29.131
-32.232
-35.2
-38.038
-40.751
-43.344
-45.823
-48.193
-50.462
-52.636
-54.722
-56.726
-58.655
-60.515
-62.314
-64.056
-65.748
-67.394
-68.999
-70.568
-72.106
-73.615
-75.099
-76.558
-77.995
-79.411
-80.806
-82.181
-83.534
-84.865
-86.172
-87.455
-88.712
-89.943
-91.143
-92.312
-93.449
-94.55
-95.616
-96.643
-97.627
-98.567
-99.461
-100.308
-101.107
-101.855
-102.553
-103.202
-103.809
-104.38
-104.918
-105.431
-105.924
-106.406
-106.885
-107.366
-107.851
-108.343
-108.847
-109.374
-109.933
-110.535
-111.188
-111.899
-112.676
-113.532
-114.473
-115.5
-116.603
-117.779
-119.031
-120.375
-121.835
-123.427
-125.152
-127.012
-129.002
-131.113
-133.325
-135.598
-137.863
-140.063
-142.15
-144.095
-145.884
-147.485
-148.844
-149.908
-150.614
-150.931
-150.845
-150.336
-149.407
-148.101
-146.499
-144.728
-142.947
-141.294
-139.901
-138.916
-138.475
-138.724
-139.799
-141.845
-145.045
-149.469
-155.026
-161.467
-168.301
-174.961
-180.967
-185.757
-188.584
-188.986
-186.986
-183.091
-178.492
-174.454
-171.689
-170.804
-172.623
-177.489
-184.738
-192.601
-197.905
-197.13
-187.785
-167.472
-133.352
-83.014
-14.948
68.852
162.262
258.96
353.01
443.742
536.493
630.342
720.327
792.998
822.255
793.29
700.961
548.934
361.013
159.652
-34.901
-197.889
-316.404
-386.274
-410.986
-408.82
-398.826
-390.969
-388.845
-387.42
-379.71
-365.888
-348.791
-331.844
-318.726
-309.44
-302.098
-295.379
-287.361
-276.295
-261.858
-244.327
-224.375
-203.205
-181.815
-160.846
-141.159
-123.721
-109.122
-97.725
-89.573
-84.328
-81.677
-81.357
-82.993
-86.164
-90.398
-95.106
-99.801
-104.169
-107.97
-111.067
-113.328
-114.578
-114.66
-113.454
-110.909
-107.043
-101.887
-95.481
-87.914
-79.336
-69.982
-60.169
-50.169
-40.163
-30.281
-20.593
-11.17
-2.099
6.555
14.754
22.477
29.707
36.419
42.576
48.17
53.224
57.799
61.985
65.851
69.43
72.746
75.805
78.613
81.173
83.477
85.5
87.226
88.646
89.764
90.59
91.128
91.375
91.324
90.966
90.295
89.311
88.014
86.408
84.498
82.293
79.809
77.067
74.085
70.88
67.468
63.863
60.081
56.141
52.056
47.842
43.517
39.098
34.605
30.058
25.475
20.877
16.282
11.711
7.181
2.71
-1.685
-5.988
-10.184
-14.258
-18.196
-21.986
-25.617
-29.078
-32.358
-35.449
-38.344
-41.038
-43.527
-45.809
-47.886
-49.758
-51.428
-52.902
-54.186
-55.287
-56.213
-56.974
-57.581
-58.045
-58.38
-58.6
-58.719
-58.753
-58.718
-58.631
-58.508
-58.364
-58.215
-58.076
-57.963
-57.889
-57.866
-57.907
-58.023
-58.224
-58.52
-58.918
-59.426
-60.048
-60.786
-61.641
-62.612
-63.697
-64.889
-66.182
-67.566
-69.031
-70.566
-72.158
-73.793
-75.454
-77.126
-78.791
-80.433
-82.033
-83.573
-85.034
-86.398
-87.65
-88.772
-89.75
-90.569
-91.218
-91.688
-91.972
-92.063
-91.956
-91.649
-91.138
-90.426
-89.511
-88.395
-87.08
-85.568
-83.866
-81.986
-79.942
-77.75
-75.428
-72.994
-70.466
-67.866
-65.212
-62.513
-59.781
-57.03
-54.28
-51.569
-48.93
-46.385
-43.956
-41.662
-39.512
-37.504
-35.617
-33.803
-32.021
-30.237
-28.426
-26.589
-24.721
-22.796
-20.784
-18.641
-16.327
-13.823
-11.111
-8.151
-4.957
-1.606
1.781
5.013
7.933
10.461
12.502
13.958
14.745
14.753
13.877
12.083
9.228
5.074
-0.417
-7.18
-14.907
-22.834
-30.143
-36.101
-39.755
-40.189
-37.132
-30.644
-21.375
-11.229
-2.325
3.503
4.194
-0.442
-7.862
-15.588
-21.764
-27.048
-34.212
-41.906
-41.024
-15.511
48.556
155.841
298.101
456.743
618.402
775.293
921.378
1050.889
1146.977
1190.505
1171.819
1091.186
961.313
798.704
617.597
430.628
251.925
99.599
-13.898
-83.963
-116.646
-129.304
-133.905
-134.922
-131.521
-116.814
-88.929
-52.302
-12.756
23.605
53.834
78.09
97.229
111.737
121.357
126.824
129.808
131.745
134.124
137.602
141.94
147.513
155.149
164.83
176.05
187.982
199.246
209.187
217.867
225.106
230.685
234.618
237.004
238.345
239.563
241.187
243.404
246.339
249.956
254.275
259.394
265.244
271.641
278.45
285.568
292.949
300.62
308.537
316.604
324.706
332.704
340.508
348.074
355.362
362.349
369.014
375.334
381.315
386.983
392.346
397.41
402.164
406.588
410.676
414.434
417.866
420.985
423.791
426.277
428.437
430.263
431.74
432.858
433.596
433.932
433.851
433.34
432.39
430.993
429.143
426.832
424.056
420.813
417.099
412.913
408.255
403.123
397.522
391.457
384.933
377.961
370.549
362.711
354.46
345.815
336.791
327.408
317.687
307.65
297.323
286.73
275.9
264.859
253.64
242.272
230.788
219.222
207.605
195.971
184.354
172.784
161.295
149.917
138.679
127.608
116.732
106.076
95.664
85.517
75.655
66.095
56.852
47.94
39.369
31.148
23.282
15.776
8.631
1.848
-4.576
-10.644
-16.363
-21.74
-26.785
-31.509
-35.926
-40.052
-43.904
-47.499
-50.856
-53.996
-56.937
-59.702
-62.31
-64.78
-67.132
-69.384
-71.554
-73.661
-75.719
-77.742
-79.744
-81.736
-83.727
-85.728
-87.744
-89.779
-91.839
-93.925
-96.041
-98.189
-100.369
-102.579
-104.818
-107.084
-109.377
-111.692
-114.027
-116.374
-118.73
-121.09
-123.45
-125.805
-128.15
-130.476
-132.782
-135.066
-137.333
-139.585
-141.829
-144.067
-146.307
-148.555
-150.817
-153.096
-155.392
-157.705
-160.039
-162.399
-164.796
-167.24
-169.746
-172.32
-174.966
-177.679
-180.447
-183.259
-186.104
-188.982
-191.896
-194.869
-197.918
-201.062
-204.322
-207.711
-211.23
-214.857
-218.537
-222.206
-225.829
-229.405
-232.959
-236.495
-239.953
-243.235
-246.254
-248.936
-251.267
-253.19
-254.544
-255.272
-255.543
-255.742
-256.329
-257.57
-259.324
-261.375
-263.804
-266.568
-269.333
-271.424
-272.024
-270.923
-268.802
-266.533
-264.387
-262.58
-261.543
-262.01
-264.903
-270.257
-277
-284.153
-291.655
-299.599
-308.118
-317.172
-326.384
-336.164
-346.152
-353.645
-355.522
-349.907
-339.48
-329.607
-320.744
-305.628
-267.545
-191.543
-76.266
68.332
221.121
365.829
501.976
630.879
753.504
861.623
928.317
930.541
857.97
710.786
511.314
289.996
71.45
-118.167
-262.914
-361.647
-417.294
-442.692
-454.369
-458.875
-458.252
-449.664
-426.959
-391.332
-348.597
-305.18
-267.479
-237.86
-215.689
-200.533
-192.112
-189.472
-190.941
-194.201
-197.017
-198.344
-198.139
-196.195
-191.861
-185.035
-176.23
-166.579
-157.663
-150.273
-144.427
-140.157
-137.578
-136.651
-137.243
-138.809
-140.383
-141.379
-141.577
-140.856
-139.26
-136.78
-133.321
-128.924
-123.773
-117.997
-111.7
-104.943
-97.703
-90.025
-82.011
-73.771
-65.447
-57.136
-48.885
-40.733
-32.71
-24.836
-17.136
-9.619
-2.266
4.927
11.953
18.801
25.445
31.866
38.064
44.037
49.786
55.306
60.579
65.59
70.322
74.757
78.873
82.647
86.052
89.067
91.678
93.869
95.633
96.959
97.839
98.264
98.231
97.736
96.777
95.353
93.464
91.115
88.313
85.066
81.386
77.286
72.783
67.895
62.642
57.046
51.13
44.922
38.446
31.734
24.814
17.718
10.477
3.125
-4.306
-11.783
-19.271
-26.737
-34.148
-41.474
-48.682
-55.741
-62.623
-69.301
-75.747
-81.94
-87.855
-93.472
-98.773
-103.742
-108.366
-112.633
-116.536
-120.068
-123.225
-126.007
-128.416
-130.456
-132.132
-133.452
-134.427
-135.069
-135.391
-135.407
-135.135
-134.592
-133.796
-132.767
-131.526
-130.093
-128.489
-126.735
-124.853
-122.862
-120.784
-118.638
-116.44
-114.208
-111.957
-109.703
-107.457
-105.232
-103.036
-100.879
-98.766
-96.703
-94.693
-92.737
-90.836
-88.989
-87.195
-85.45
-83.75
-82.092
-80.471
-78.881
-77.32
-75.782
-74.262
-72.754
-71.253
-69.755
-68.255
-66.75
-65.234
-63.706
-62.165
-60.612
-59.055
-57.5
-55.952
-54.42
-52.916
-51.451
-50.037
-48.682
-47.392
-46.173
-45.037
-43.997
-43.067
-42.257
-41.579
-41.044
-40.666
-40.457
-40.423
-40.566
-40.879
-41.361
-42.019
-42.866
-43.929
-45.226
-46.766
-48.556
-50.6
-52.893
-55.42
-58.144
-61.003
-63.936
-66.895
-69.835
-72.716
-75.489
-78.093
-80.462
-82.526
-84.215
-85.474
-86.277
-86.616
-86.524
-86.059
-85.281
-84.312
-83.307
-82.436
-81.882
-81.794
-82.27
-83.455
-85.601
-88.888
-93.364
-98.853
-104.855
-110.856
-116.461
-121.115
-124.071
-124.735
-122.87
-119
-114.479
-110.611
-108.605
-109.952
-116.185
-128.394
-145.191
-162.272
-174.963
-179.732
-177.543
-171.749
-160.385
-136.622
-88.57
-4.226
117.731
270.209
440.58
614.08
778.675
920.915
1024.948
1072.911
1049.669
952.015
787.224
574.469
341.37
113.088
-85.063
-235.071
-331.878
-376.923
-383.37
-366.98
-339.214
-311.274
-286.835
-267.753
-254.393
-241.21
-224.967
-202.485
-174.011
-146.406
-124.16
-110.035
-104.19
-102.63
-103.213
-105.692
-109.342
-113.637
-117.687
-119.908
-119.641
-117.181
-112.715
-106.47
-99.098
-91.488
-84.427
-78.695
-74.611
-71.978
-70.562
-69.998
-69.787
-69.389
-68.398
-66.557
-63.77
-60.091
-55.589
-50.357
-44.512
-38.186
-31.473
-24.414
-17.052
-9.421
-1.591
6.32
14.223
22.052
29.756
37.306
44.681
51.857
58.831
65.621
72.232
78.661
84.897
90.914
96.698
102.243
107.549
112.612
117.432
122.001
126.313
130.358
134.124
137.594
140.748
143.565
146.026
148.121
149.84
151.174
152.118
152.666
152.813
152.558
151.9
150.835
149.365
147.488
145.208
142.533
139.468
136.024
132.21
128.039
123.526
118.688
113.542
108.107
102.403
96.453
90.281
83.911
77.369
70.682
63.877
56.982
50.026
43.037
36.043
29.072
22.152
15.309
8.57
1.959
-4.5
-10.785
-16.875
-22.752
-28.396
-33.792
-38.925
-43.784
-48.359
-52.642
-56.626
-60.308
-63.687
-66.763
-69.541
-72.024
-74.22
-76.138
-77.789
-79.184
-80.338
-81.266
-81.983
-82.507
-82.855
-83.046
-83.098
-83.03
-82.859
-82.604
-82.283
-81.911
-81.506
-81.079
-80.646
-80.217
-79.805
-79.419
-79.066
-78.753
-78.484
-78.263
-78.091
-77.967
-77.89
-77.855
-77.856
-77.888
-77.943
-78.012
-78.086
-78.153
-78.204
-78.229
-78.215
-78.153
-78.029
-77.833
-77.556
-77.189
-76.725
-76.158
-75.482
-74.697
-73.805
-72.811
-71.719
-70.533
-69.259
-67.906
-66.487
-65.017
-63.506
-61.965
-60.409
-58.853
-57.322
-55.836
-54.413
-53.065
-51.804
-50.645
-49.609
-48.712
-47.963
-47.369
-46.932
-46.662
-46.584
-46.718
-47.069
-47.642
-48.426
-49.41
-50.591
-51.956
-53.469
-55.098
-56.801
-58.538
-60.288
-62.022
-63.717
-65.361
-66.925
-68.372
-69.653
-70.691
-71.446
-71.934
-72.222
-72.353
-72.311
-72.143
-72.073
-72.534
-73.984
-76.634
-80.299
-84.75
-90.118
-96.394
-103.155
-109.328
-113.329
-114.104
-111.678
-106.484
-98.467
-87.657
-74.611
-61.141
-50.407
-45.014
-46.034
-53.422
-67.133
-87.09
-112.469
-140.425
-165.849
-183.311
-188.39
-177.694
-148.018
-96.185
-19.635
79.917
195.666
320.269
446.101
570.137
696.269
823.048
943.182
1043.409
1097.989
1086.874
1003.428
849.098
644.712
419.917
199.698
11.74
-126.02
-212.173
-251.386
-260.251
-259.327
-257.485
-257.329
-255.101
-242.954
-220.243
-191.341
-161.072
-134.557
-113.701
-97.63
-85.391
-76.35
-70.374
-66.715
-64.563
-63.265
-61.747
-59.703
-57.288
-54.029
-49.369
-43.434
-36.397
-28.792
-21.757
-15.718
-10.672
-6.866
-4.393
-3.182
-3.123
-3.689
-4.079
-3.873
-2.879
-0.99
1.754
5.381
9.933
15.292
21.276
27.746
34.596
41.791
49.313
57.088
64.999
72.909
80.703
88.316
95.707
102.845
109.711
116.283
122.563
128.576
134.34
139.858
145.133
150.15
154.902
159.397
163.642
167.649
171.429
174.987
178.321
181.432
184.315
186.963
189.367
191.512
193.387
194.987
196.306
197.345
198.099
198.568
198.751
198.646
198.254
197.571
196.596
195.328
193.765
191.909
189.763
187.327
184.607
181.606
178.332
174.79
170.991
166.941
162.65
158.13
153.392
148.448
143.312
137.999
132.524
126.903
121.154
115.296
109.348
103.329
97.258
91.157
85.044
78.94
72.864
66.835
60.872
54.993
49.216
43.559
38.038
32.666
27.46
22.429
17.586
12.939
8.495
4.261
0.241
-3.562
-7.147
-10.513
-13.661
-16.595
-19.318
-21.836
-24.156
-26.288
-28.24
-30.023
-31.649
-33.129
-34.478
-35.709
-36.832
-37.862
-38.812
-39.694
-40.522
-41.307
-42.061
-42.794
-43.516
-44.236
-44.962
-45.7
-46.453
-47.226
-48.021
-48.839
-49.681
-50.545
-51.429
-52.33
-53.245
-54.171
-55.103
-56.036
-56.961
-57.875
-58.769
-59.64
-60.48
-61.282
-62.04
-62.752
-63.416
-64.033
-64.602
-65.126
-65.604
-66.043
-66.445
-66.814
-67.149
-67.449
-67.717
-67.96
-68.186
-68.405
-68.626
-68.858
-69.113
-69.406
-69.748
-70.143
-70.591
-71.091
-71.65
-72.283
-73.019
-73.878
-74.873
-76.018
-77.321
-78.781
-80.388
-82.112
-83.902
-85.71
-87.504
-89.256
-90.958
-92.588
-94.102
-95.457
-96.598
-97.482
-98.081
-98.352
-98.273
-97.889
-97.269
-96.529
-95.806
-95.176
-94.722
-94.561
-94.767
-95.435
-96.695
-98.606
-101.332
-105.146
-110.08
-116.048
-122.801
-129.667
-135.959
-141.156
-144.418
-144.871
-142.444
-137.349
-130.282
-123.18
-117.878
-115.737
-118.631
-126.646
-136.848
-146.625
-154.002
-159.798
-167.802
-177.241
-179.528
-157.939
-97.241
5.305
139.615
283.653
418.524
539.928
649.049
747.749
832.014
883.908
883.401
822.214
700.401
529.703
335.117
137.205
-42.191
-180.311
-271.957
-316.355
-322.974
-312.004
-292.232
-272.445
-255.527
-237.666
-223.264
-211.75
-202.36
-196.098
-188.243
-179.197
-170.417
-161.503
-153.844
-145.398
-134.257
-121.278
-107.786
-96.201
-88.287
-83.805
-81.914
-82.296
-84.64
-88.439
-92.757
-96.057
-97.334
-96.65
-94.715
-92.061
-88.843
-85.052
-80.75
-76.353
-72.195
-68.189
-63.923
-59.015
-53.332
-46.945
-40.027
-32.65
-24.824
-16.634
-8.242
0.16
8.409
16.424
24.204
31.749
39.038
46.048
52.744
59.115
65.176
70.943
76.423
81.622
86.535
91.162
95.511
99.595
103.426
107.006
110.333
113.401
116.208
118.759
121.056
123.102
124.892
126.421
127.691
128.703
129.461
129.968
130.224
130.229
129.987
129.499
128.765
127.785
126.557
125.079
123.348
121.364
119.124
116.629
113.877
110.87
107.61
104.1
100.342
96.341
92.103
87.634
82.942
78.035
72.923
67.617
62.128
56.472
50.661
44.712
38.641
32.466
26.204
19.877
13.503
7.104
0.702
-5.681
-12.022
-18.296
-24.479
-30.548
-36.479
-42.25
-47.836
-53.217
-58.374
-63.286
-67.939
-72.315
-76.402
-80.187
-83.662
-86.819
-89.652
-92.159
-94.338
-96.191
-97.721
-98.934
-99.836
-100.436
-100.746
-100.776
-100.54
-100.054
-99.333
-98.394
-97.254
-95.932
-94.448
-92.822
-91.072
-89.219
-87.282
-85.28
-83.231
-81.153
-79.061
-76.971
-74.896
-72.848
-70.839
-68.878
-66.972
-65.127
-63.347
-61.636
-59.995
-58.426
-56.925
-55.49
-54.12
-52.809
-51.555
-50.352
-49.195
-48.079
-47.001
-45.959
-44.95
-43.971
-43.02
-42.095
-41.196
-40.32
-39.465
-38.627
-37.803
-36.992
-36.2
-35.431
-34.69
-33.981
-33.31
-32.684
-32.111
-31.597
-31.137
-30.732
-30.383
-30.1
-29.909
-29.832
-29.88
-30.061
-30.384
-30.845
-31.442
-32.156
-32.941
-33.76
-34.58
-35.375
-36.142
-36.875
-37.538
-38.091
-38.478
-38.643
-38.565
-38.222
-37.581
-36.655
-35.492
-34.181
-32.865
-31.657
-30.634
-29.887
-29.519
-29.647
-30.407
-31.89
-34.222
-37.613
-42.181
-47.917
-54.595
-61.625
-68.377
-74.288
-78.652
-80.693
-79.904
-76.116
-69.974
-63.112
-57.057
-53.083
-52.763
-57.267
-67.094
-82.32
-99.501
-113.478
-121.655
-119.815
-106.472
-81.349
-36.09
32.811
125.28
241.868
370.806
504.79
644.855
784.242
917.929
1033.654
1103.814
1109.415
1042.455
903.553
713.931
501.323
288.884
103.232
-37.959
-131.833
-180.918
-199.485
-206.525
-210.532
-214.31
-214.749
-204.951
-185.021
-159.51
-133.722
-112.847
-98.072
-87.997
-81.115
-75.682
-70.392
-64.129
-55.636
-44.541
-31.265
-16.511
-1.23
13.782
27.932
40.457
50.617
58.053
62.645
64.549
64.177
61.898
58.123
53.372
48.1
42.735
37.671
33.137
29.294
26.272
24.124
22.928
22.771
23.7
25.792
29.091
33.547
39.078
45.535
52.685
60.331
68.283
76.333
84.35
92.236
99.908
107.346
114.539
121.45
128.051
134.295
140.121
145.511
150.459
154.978
159.122
162.929
166.431
169.672
172.674
175.445
177.987
180.281
182.289
183.993
185.378
186.432
187.16
187.558
187.62
187.342
186.718
185.741
184.409
182.715
180.656
178.232
175.448
172.313
168.844
165.056
160.962
156.578
151.919
147.001
141.84
136.454
130.856
125.063
119.096
112.974
106.718
100.35
93.894
87.371
80.805
74.22
67.639
61.086
54.582
48.151
41.812
35.585
29.491
23.546
17.767
12.17
6.768
1.576
-3.396
-8.136
-12.637
-16.89
-20.891
-24.635
-28.12
-31.345
-34.31
-37.017
-39.466
-41.663
-43.612
-45.318
-46.79
-48.036
-49.064
-49.886
-50.514
-50.961
-51.24
-51.364
-51.348
-51.206
-50.952
-50.6
-50.164
-49.655
-49.085
-48.465
-47.806
-47.116
-46.406
-45.681
-44.949
-44.216
-43.487
-42.765
-42.053
-41.354
-40.669
-39.999
-39.343
-38.703
-38.078
-37.468
-36.873
-36.291
-35.724
-35.168
-34.625
-34.093
-33.569
-33.053
-32.543
-32.038
-31.537
-31.041
-30.551
-30.07
-29.605
-29.163
-28.753
-28.389
-28.081
-27.839
-27.67
-27.582
-27.579
-27.668
-27.854
-28.142
-28.532
-29.028
-29.637
-30.369
-31.23
-32.215
-33.31
-34.499
-35.769
-37.113
-38.531
-40.028
-41.614
-43.304
-45.107
-47.04
-49.121
-51.344
-53.692
-56.124
-58.572
-61.001
-63.398
-65.745
-68.044
-70.247
-72.251
-73.985
-75.367
-76.317
-76.854
-76.926
-76.369
-75.244
-73.756
-72.126
-70.769
-69.848
-69.101
-68.54
-68.434
-68.728
-69.328
-69.961
-69.809
-68.607
-66.773
-64.304
-61.017
-56.995
-52.059
-46.548
-41.974
-39.564
-40.136
-44.68
-53.997
-68.845
-90.062
-117.682
-148.497
-176.666
-198.272
-210.688
-213.679
-210.465
-196.049
-159.354
-93.597
6.642
135.323
274.45
414.537
551.256
679.079
795.568
885.795
923.898
896.554
800.371
644.588
454.776
251.889
52.465
-125.762
-273.305
-384.429
-458.069
-504.111
-532.502
-548.353
-552.869
-542.013
-514.291
-474.217
-428.918
-385.59
-348.687
-319.931
-299.921
-288.87
-286.469
-291.122
-300.087
-311.186
-322.666
-332.767
-340.345
-344.157
-343.324
-338.178
-329.735
-318.997
-307.119
-295.32
-284.298
-274.745
-267.148
-261.366
-257.089
-253.863
-250.979
-247.775
-243.883
-239.047
-233.168
-226.325
-218.535
-209.863
-200.472
-190.506
-180.078
-169.259
-158.063
-146.515
-134.692
-122.709
-110.699
-98.774
-86.997
-75.417
-64.073
-52.993
-42.212
-31.738
-21.557
-11.667
-2.074
7.206
16.149
24.744
32.995
40.909
48.493
55.752
62.685
69.287
75.557
81.487
87.067
92.286
97.127
101.58
105.639
109.303
112.57
115.438
117.906
119.975
121.648
122.926
123.81
124.303
124.407
124.127
123.469
122.441
121.051
119.307
117.221
114.804
112.068
109.027
105.695
102.086
98.216
94.102
89.762
85.212
80.472
75.561
70.498
65.305
60
54.605
49.14
43.626
38.081
32.526
26.978
21.457
15.979
10.561
5.219
-0.032
-5.178
-10.204
-15.099
-19.852
-24.453
-28.893
-33.165
-37.262
-41.179
-44.913
-48.46
-51.819
-54.986
-57.963
-60.748
-63.343
-65.75
-67.968
-70.002
-71.853
-73.526
-75.022
-76.347
-77.502
-78.493
-79.322
-79.996
-80.516
-80.887
-81.113
-81.197
-81.143
-80.954
-80.634
-80.183
-79.604
-78.9
-78.072
-77.123
-76.053
-74.863
-73.555
-72.132
-70.594
-68.945
-67.186
-65.321
-63.353
-61.287
-59.13
-56.887
-54.565
-52.173
-49.719
-47.214
-44.67
-42.098
-39.51
-36.916
-34.332
-31.772
-29.25
-26.78
-24.377
-22.06
-19.849
-17.765
-15.828
-14.059
-12.479
-11.107
-9.966
-9.073
-8.44
-8.079
-8.001
-8.221
-8.754
-9.613
-10.806
-12.34
-14.219
-16.444
-19.018
-21.932
-25.165
-28.701
-32.528
-36.642
-41.059
-45.782
-50.801
-56.107
-61.676
-67.483
-73.498
-79.669
-85.916
-92.166
-98.35
-104.412
-110.327
-116.041
-121.48
-126.565
-131.185
-135.255
-138.727
-141.545
-143.682
-145.154
-145.988
-146.264
-146.117
-145.652
-144.977
-144.21
-143.44
-142.819
-142.515
-142.721
-143.736
-145.728
-148.704
-152.532
-156.696
-160.509
-163.396
-164.64
-163.406
-159.287
-152.137
-142.5
-132.361
-123.918
-118.951
-118.026
-119.994
-123.659
-128.987
-138.902
-156.695
-181.074
-203.685
-207.224
-173.262
-92.159
30.977
176.392
323.448
458.04
579.675
700.309
822.435
940.438
1038.268
1086.074
1069.49
985.113
837.671
653.964
457.037
268.828
115.775
5.21
-62.045
-92.313
-106.09
-114.27
-120.618
-125.304
-120.226
-103.742
-80.787
-56.7
-37.797
-26.508
-21.502
-21.209
-23.91
-27.921
-31.593
-33.077
-31.269
-26.145
-18.368
-8.879
1.534
12.217
22.428
31.36
38.525
43.83
47.45
49.755
51.073
51.63
51.66
51.419
51.116
50.972
51.217
51.975
53.334
55.364
58.078
61.505
65.665
70.522
75.994
81.993
88.424
95.214
102.309
109.632
117.09
124.578
131.974
139.191
146.175
152.879
159.27
165.316
170.993
176.301
181.261
185.887
190.183
194.148
197.773
201.059
204.016
206.652
208.974
210.985
212.684
214.071
215.149
215.917
216.37
216.501
216.301
215.765
214.892
213.682
212.136
210.257
208.045
205.506
202.646
199.468
195.977
192.179
188.077
183.679
178.993
174.027
168.79
163.294
157.548
151.568
145.366
138.958
132.358
125.583
118.649
111.577
104.383
97.089
89.712
82.273
74.793
67.293
59.792
52.312
44.872
37.492
30.192
22.993
15.912
8.968
2.178
-4.44
-10.871
-17.099
-23.109
-28.888
-34.425
-39.707
-44.725
-49.471
-53.937
-58.12
-62.016
-65.623
-68.94
-71.969
-74.712
-77.175
-79.361
-81.277
-82.931
-84.328
-85.479
-86.392
-87.076
-87.542
-87.8
-87.861
-87.737
-87.438
-86.977
-86.364
-85.611
-84.729
-83.728
-82.621
-81.417
-80.126
-78.759
-77.325
-75.835
-74.296
-72.718
-71.108
-69.472
-67.816
-66.145
-64.462
-62.771
-61.072
-59.37
-57.664
-55.959
-54.255
-52.554
-50.856
-49.164
-47.478
-45.8
-44.13
-42.467
-40.813
-39.168
-37.532
-35.909
-34.299
-32.703
-31.123
-29.561
-28.019
-26.499
-25.003
-23.532
-22.086
-20.67
-19.288
-17.942
-16.637
-15.38
-14.178
-13.043
-11.986
-11.019
-10.151
-9.395
-8.761
-8.261
-7.903
-7.69
-7.626
-7.716
-7.965
-8.384
-8.98
-9.757
-10.72
-11.871
-13.214
-14.755
-16.486
-18.392
-20.465
-22.697
-25.094
-27.681
-30.471
-33.466
-36.668
-40.07
-43.657
-47.412
-51.292
-55.221
-59.138
-62.976
-66.691
-70.267
-73.661
-76.822
-79.692
-82.181
-84.228
-85.799
-86.852
-87.37
-87.394
-86.983
-86.254
-85.375
-84.488
-83.765
-83.371
-83.426
-84.07
-85.392
-87.525
-90.762
-95.265
-100.998
-107.81
-115.239
-122.723
-129.865
-135.983
-140.036
-141.403
-139.934
-135.96
-130.673
-125.563
-121.91
-121.331
-126.015
-135.64
-147.027
-157.257
-162.235
-162.575
-164.765
-168.472
-167.793
-149.167
-91.813
12.343
158.496
333.027
514.843
690.763
853.036
992.07
1096.536
1147.263
1126.628
1027.857
855.165
632.071
390.643
162.718
-19.963
-145.711
-218.084
-249.326
-264.176
-276.036
-286.646
-293.779
-287.128
-263.553
-228.955
-190.246
-155.205
-127.793
-107.547
-93.297
-84.444
-80.973
-81.93
-85.291
-89.065
-91.494
-91.939
-90.732
-87.636
-81.947
-73.749
-63.71
-52.868
-42.72
-34.007
-26.691
-20.915
-16.907
-14.676
-14.134
-14.836
-15.888
-16.7
-17.055
-16.795
-15.924
-14.439
-12.24
-9.351
-5.938
-2.135
1.954
6.259
10.791
15.53
20.394
25.285
30.079
34.658
38.956
42.933
46.557
49.813
52.684
55.165
57.278
59.059
60.532
61.716
62.612
63.227
63.58
63.7
63.618
63.362
62.951
62.398
61.718
60.922
60.02
59.017
57.913
56.704
55.391
53.979
52.473
50.876
49.191
47.418
45.558
43.613
41.582
39.462
37.251
34.945
32.539
30.03
27.415
24.689
21.85
18.893
15.816
12.617
9.294
5.847
2.274
-1.422
-5.239
-9.174
-13.22
-17.373
-21.622
-25.959
-30.373
-34.85
-39.378
-43.941
-48.526
-53.114
-57.691
-62.239
-66.74
-71.178
-75.535
-79.794
-83.937
-87.948
-91.81
-95.508
-99.027
-102.354
-105.475
-108.38
-111.057
-113.5
-115.7
-117.653
-119.353
-120.8
-121.992
-122.932
-123.623
-124.07
-124.282
-124.267
-124.036
-123.6
-122.975
-122.174
-121.214
-120.111
-118.884
-117.549
-116.125
-114.631
-113.083
-111.5
-109.898
-108.293
-106.702
-105.138
-103.615
-102.147
-100.744
-99.419
-98.18
-97.037
-95.996
-95.064
-94.246
-93.545
-92.963
-92.502
-92.159
-91.933
-91.82
-91.816
-91.915
-92.111
-92.395
-92.758
-93.191
-93.683
-94.223
-94.801
-95.404
-96.02
-96.637
-97.246
-97.835
-98.394
-98.913
-99.382
-99.794
-100.139
-100.413
-100.607
-100.715
-100.731
-100.653
-100.477
-100.201
-99.824
-99.345
-98.766
-98.094
-97.334
-96.495
-95.583
-94.607
-93.577
-92.503
-91.395
-90.26
-89.102
-87.928
-86.749
-85.576
-84.424
-83.301
-82.219
-81.186
-80.213
-79.311
-78.487
-77.734
-77.052
-76.442
-75.917
-75.506
-75.229
-75.093
-75.106
-75.266
-75.561
-75.98
-76.488
-77.024
-77.534
-77.968
-78.289
-78.488
-78.54
-78.402
-78.017
-77.308
-76.222
-74.744
-72.843
-70.508
-67.786
-64.75
-61.535
-58.342
-55.299
-52.521
-50.159
-48.332
-47.193
-46.9
-47.528
-49.215
-52.206
-56.594
-62.305
-69.019
-76.027
-82.67
-88.5
-92.862
-94.925
-94.189
-90.634
-85.05
-79.103
-74.096
-70.739
-69.997
-73.059
-80.596
-90.809
-99.072
-100.225
-91.004
-73.646
-52.958
-28.556
5.49
60.659
148.606
270.353
417.805
577.486
734.702
878.789
1000.371
1089.161
1130.896
1111.373
1023.475
867.89
661.656
432.56
210.229
25.858
-105.524
-184.729
-222.245
-240.597
-254.01
-265.613
-273.205
-266.987
-243.752
-208.864
-169.777
-135.03
-108.472
-89.579
-77.366
-71.035
-70.141
-73.485
-78.326
-82.053
-83.597
-82.889
-80.345
-76.043
-69.484
-60.858
-51.436
-42.732
-35.661
-30.451
-26.823
-24.564
-23.88
-24.768
-26.781
-29.177
-31.211
-32.487
-32.93
-32.558
-31.315
-29.111
-25.905
-21.78
-16.906
-11.41
-5.367
1.193
8.255
15.737
23.521
31.472
39.446
47.346
55.115
62.701
70.068
77.184
84.017
90.561
96.836
102.849
108.597
114.07
119.245
124.113
128.681
132.959
136.953
140.663
144.081
147.201
150.017
152.523
154.708
156.561
158.063
159.204
159.981
160.39
160.432
160.107
159.414
158.356
156.936
155.16
153.031
150.553
147.732
144.574
141.088
137.284
133.172
128.764
124.072
119.111
113.895
108.442
102.766
96.885
90.817
84.581
78.197
71.684
65.063
58.355
51.582
44.764
37.924
31.085
24.266
17.49
10.777
4.148
-2.378
-8.781
-15.044
-21.149
-27.079
-32.818
-38.351
-43.664
-48.744
-53.581
-58.163
-62.482
-66.531
-70.306
-73.801
-77.015
-79.947
-82.597
-84.968
-87.064
-88.89
-90.454
-91.764
-92.83
-93.663
-94.274
-94.679
-94.889
-94.921
-94.789
-94.51
-94.099
-93.573
-92.948
-92.241
-91.467
-90.642
-89.781
-88.9
-88.013
-87.132
-86.272
-85.444
-84.66
-83.93
-83.264
-82.67
-82.156
-81.728
-81.39
-81.145
-80.994
-80.936
-80.971
-81.095
-81.305
-81.596
-81.96
-82.392
-82.883
-83.426
-84.009
-84.623
-85.257
-85.901
-86.544
-87.175
-87.783
-88.358
-88.891
-89.372
-89.795
-90.15
-90.43
-90.628
-90.736
-90.75
-90.665
-90.475
-90.176
-89.768
-89.25
-88.627
-87.905
-87.094
-86.2
-85.234
-84.208
-83.135
-82.025
-80.888
-79.726
-78.549
-77.367
-76.191
-75.035
-73.909
-72.822
-71.785
-70.813
-69.915
-69.098
-68.362
-67.7
-67.114
-66.611
-66.206
-65.926
-65.79
-65.805
-65.977
-66.312
-66.804
-67.434
-68.163
-68.922
-69.651
-70.296
-70.813
-71.169
-71.311
-71.179
-70.718
-69.862
-68.556
-66.772
-64.497
-61.727
-58.527
-54.976
-51.163
-47.266
-43.466
-39.923
-36.836
-34.365
-32.548
-31.486
-31.417
-32.421
-34.482
-37.508
-41.033
-44.58
-48.154
-51.599
-53.98
-54.773
-53.993
-51.381
-49.198
-49.863
-51.97
-55.595
-58.897
-57.485
-52.887
-45.519
-36.568
-31.867
-32.263
-36.352
-37.261
-21.692
21.199
100.252
214.644
356.142
517.09
683.831
841.153
973.251
1057.771
1076.771
1025.781
908.45
739.703
545.515
346.045
162.125
16.224
-85.675
-142.852
-163.547
-170.144
-174.132
-179.451
-185.45
-182.374
-168.207
-147.73
-125.49
-106.862
-93.031
-81.977
-72.762
-64.875
-57.479
-49.784
-40.965
-31.366
-22.676
-16.254
-12.349
-10.225
-9.297
-9.536
-11.081
-13.498
-15.572
-16.338
-15.69
-14.334
-12.92
-11.612
-10.285
-8.803
-7.384
-6.272
-5.35
-4.162
-2.275
0.523
4.237
8.715
13.887
19.748
26.221
33.177
40.455
47.909
55.441
62.991
70.512
77.954
85.266
92.4
99.32
106.011
112.467
118.702
124.725
130.535
136.127
141.491
146.622
151.52
156.188
160.621
164.811
168.748
172.426
175.843
178.998
181.881
184.479
186.776
188.759
190.424
191.764
192.778
193.461
193.81
193.826
193.511
192.867
191.897
190.601
188.98
187.037
184.778
182.208
179.336
176.169
172.717
168.992
165.007
160.776
156.314
151.635
146.756
141.695
136.47
131.099
125.603
120
114.311
108.558
102.761
96.941
91.12
85.318
79.555
73.851
68.225
62.696
57.28
51.994
46.855
41.876
37.071
32.454
28.035
23.823
19.827
16.052
12.504
9.183
6.091
3.226
0.587
-1.832
-4.035
-6.031
-7.828
-9.435
-10.863
-12.125
-13.235
-14.207
-15.055
-15.796
-16.446
-17.021
-17.538
-18.015
-18.466
-18.91
-19.361
-19.835
-20.349
-20.918
-21.556
-22.276
-23.091
-24.011
-25.048
-26.211
-27.506
-28.938
-30.512
-32.231
-34.097
-36.11
-38.27
-40.573
-43.017
-45.596
-48.306
-51.139
-54.087
-57.14
-60.287
-63.52
-66.826
-70.195
-73.613
-77.068
-80.547
-84.039
-87.532
-91.013
-94.468
-97.884
-101.249
-104.553
-107.784
-110.932
-113.988
-116.945
-119.8
-122.551
-125.198
-127.739
-130.177
-132.513
-134.751
-136.895
-138.944
-140.9
-142.764
-144.541
-146.242
-147.878
-149.455
-150.984
-152.473
-153.932
-155.377
-156.814
-158.24
-159.654
-161.061
-162.476
-163.927
-165.439
-167.02
-168.68
-170.424
-172.249
-174.153
-176.109
-178.064
-179.967
-181.773
-183.45
-184.991
-186.372
-187.549
-188.467
-189.058
-189.277
-189.116
-188.557
-187.571
-186.185
-184.46
-182.517
-180.539
-178.65
-176.95
-175.563
-174.623
-174.286
-174.706
-175.979
-178.217
-181.623
-186.293
-192.162
-198.956
-206.075
-212.914
-219.028
-223.819
-226.489
-226.471
-223.677
-218.756
-213.119
-207.943
-203.963
-202.123
-203.669
-209.599
-218.383
-225.54
-226.339
-217.886
-202.484
-184.904
-164.378
-133.027
-77.985
10.659
132.696
276.43
425.471
571.434
708.59
832.106
935.704
996.545
992.75
914.895
761.306
553.763
325.396
103.067
-84.216
-220.028
-305.411
-343.288
-349.098
-339.996
-320.845
-299.557
-276.793
-250.393
-227.407
-207.617
-191.002
-179.083
-167.462
-157.515
-150.994
-146.48
-144.008
-140.669
-133.951
-124.235
-111.964
-98.248
-84.296
-70.557
-57.652
-46.426
-37.255
-30.127
-24.817
-20.879
-17.952
-15.823
-14.197
-12.736
-11.142
-9.113
-6.47
-3.153
0.901
5.722
11.315
17.695
24.822
32.593
40.92
49.705
58.853
68.297
77.945
87.682
97.394
106.95
116.253
125.245
133.878
142.116
149.936
157.316
164.256
170.782
176.911
182.649
188.005
192.974
197.563
201.789
205.668
209.213
212.437
215.347
217.951
220.259
222.279
224.016
225.472
226.645
227.541
228.167
228.532
228.647
228.521
228.163
227.583
226.793
225.805
224.625
223.262
221.725
220.021
218.159
216.149
213.998
211.716
209.31
206.791
204.166
201.444
198.634
195.743
192.78
189.751
186.665
183.529
180.351
177.136
173.893
170.629
167.351
164.066
160.782
157.504
154.242
151.001
147.788
144.612
141.477
138.391
135.36
132.39
129.487
126.656
123.903
121.229
118.64
116.136
113.719
111.391
109.149
106.994
104.923
102.933
101.02
99.18
97.407
95.696
94.038
92.425
90.851
89.306
87.779
86.261
84.741
83.208
81.65
80.055
78.412
76.708
74.93
73.066
71.107
69.04
66.856
64.546
62.1
59.513
56.778
53.892
50.849
47.647
44.284
40.761
37.08
33.242
29.254
25.118
20.844
16.439
11.914
7.279
2.545
-2.276
-7.17
-12.122
-17.118
-22.142
-27.179
-32.212
-37.224
-42.198
-47.116
-51.964
-56.725
-61.385
-65.931
-70.348
-74.628
-78.764
-82.751
-86.583
-90.258
-93.772
-97.126
-100.323
-103.362
-106.244
-108.969
-111.537
-113.956
-116.236
-118.387
-120.421
-122.346
-124.175
-125.92
-127.596
-129.213
-130.771
-132.276
-133.734
-135.166
-136.605
-138.077
-139.599
-141.184
-142.841
-144.566
-146.357
-148.188
-150.007
-151.772
-153.443
-154.997
-156.433
-157.734
-158.865
-159.789
-160.443
-160.785
-160.805
-160.471
-159.767
-158.741
-157.454
-156.026
-154.636
-153.391
-152.393
-151.771
-151.62
-152.065
-153.249
-155.24
-158.154
-162.202
-167.444
-173.801
-181.003
-188.375
-195.199
-200.925
-204.848
-206.175
-204.516
-199.909
-193.061
-185.678
-179.485
-175.647
-175.309
-179.527
-188.489
-201.281
-215.585
-227.292
-232.092
-226.194
-205.687
-166.762
-106.384
-25.496
70.651
175.713
282.101
388.86
502.042
619.179
733.869
829.809
875.201
853.439
758.161
592.825
388.482
172.963
-26.651
-178.906
-277.62
-325.653
-334.655
-331.813
-329.786
-331.219
-334.845
-330.139
-314.792
-293.965
-271.677
-252.901
-239.719
-231.079
-225.775
-222.316
-219.063
-214.613
-208.668
-202.164
-195.649
-188.941
-182.126
-175.318
-168.782
-163.208
-158.551
-153.908
-149.015
-144.289
-139.945
-136.206
-133.122
-130.317
-127.735
-125.661
-123.938
-122.139
-119.952
-117.053
-113.327
-108.9
-103.778
-97.908
-91.361
-84.249
-76.696
-68.85
-60.777
-52.5
-44.084
-35.612
-27.193
-18.931
-10.885
-3.099
4.394
11.567
18.398
24.884
31.043
36.884
42.411
47.62
52.501
57.049
61.269
65.161
68.727
71.975
74.903
77.513
79.807
81.779
83.422
84.726
85.68
86.274
86.503
86.362
85.847
84.956
83.688
82.047
80.037
77.66
74.923
71.834
68.403
64.642
60.564
56.183
51.516
46.579
41.389
35.957
30.297
24.424
18.359
12.125
5.748
-0.743
-7.32
-13.947
-20.586
-27.196
-33.742
-40.198
-46.543
-52.754
-58.793
-64.61
-70.151
-75.374
-80.251
-84.758
-88.87
-92.575
-95.875
-98.807
-101.437
-103.814
-105.954
-107.847
-109.456
-110.737
-111.685
-112.312
-112.626
-112.652
-112.361
-111.697
-110.656
-109.212
-107.312
-104.909
-101.813
-97.774
-92.826
-87.206
-81.174
-75.101
-69.052
-62.718
-56.122
-49.575
-42.973
-35.984
-28.141
-18.696
-7.823
3.24
13.685
23.186
31.147
37.03
40.075
39.001
33.801
25.874
16.196
5.409
-5.814
-17.17
-28.033
-37.146
-44.243
-50.028
-54.866
-59.076
-62.872
-66.047
-68.72
-71.417
-74.218
-76.884
-79.334
-81.403
-83.053
-84.479
-85.697
-86.629
-87.302
-87.767
-88.085
-88.353
-88.597
-88.782
-88.906
-88.945
-88.871
-88.66
-88.239
-87.558
-86.591
-85.313
-83.723
-81.828
-79.635
-77.172
-74.476
-71.571
-68.484
-65.242
-61.866
-58.384
-54.823
-51.192
-47.521
-43.839
-40.184
-36.609
-33.157
-29.852
-26.72
-23.777
-21.021
-18.452
-16.046
-13.755
-11.539
-9.367
-7.22
-5.097
-2.976
-0.816
1.428
3.818
6.396
9.192
12.244
15.552
19.071
22.729
26.42
30.018
33.424
36.51
39.113
41.106
42.355
42.756
42.197
40.405
37.228
32.744
27.252
21.377
15.796
10.982
7.533
6.339
7.861
11.94
17.713
23.36
27.305
28.32
24.851
15.667
0.258
-19.227
-37.486
-50.464
-55.354
-51.791
-42.575
-21.915
19.917
88.545
190.778
319.693
459.998
606.915
753.007
892.342
1020.906
1115.573
1149.707
1107.492
980.834
786.197
557.379
325.962
122.709
-33.73
-139.104
-195.12
-209.755
-193.48
-157.853
-114.245
-75.137
-50.52
-42.476
-48.192
-57.956
-61.877
-57.401
-46.675
-35.991
-30.231
-29.199
-29.96
-28.94
-24.665
-17.712
-9.25
-0.446
8.159
16.157
22.829
27.767
30.938
32.505
32.873
32.345
31.086
29.37
27.514
25.81
24.545
23.898
23.942
24.752
26.378
28.836
32.153
36.311
41.243
46.878
53.131
59.919
67.171
74.802
82.709
90.779
98.886
106.931
114.847
122.579
130.086
137.338
144.301
150.96
157.32
163.384
169.15
174.61
179.748
184.556
189.036
193.192
197.026
200.538
203.721
206.568
209.078
211.242
213.056
214.508
215.584
216.277
216.583
216.5
216.03
215.173
213.929
212.303
210.3
207.926
205.187
202.089
198.64
194.846
190.72
186.271
181.513
176.458
171.119
165.511
159.65
153.551
147.232
140.707
133.993
127.109
120.073
112.903
105.618
98.237
90.78
83.267
75.72
68.16
60.608
53.084
45.611
38.209
30.898
23.699
16.631
9.712
2.961
-3.606
-9.971
-16.119
-22.038
-27.715
-33.138
-38.298
-43.187
-47.797
-52.123
-56.162
-59.911
-63.368
-66.534
-69.41
-71.999
-74.308
-76.342
-78.109
-79.619
-80.882
-81.912
-82.722
-83.327
-83.743
-83.988
-84.078
-84.034
-83.875
-83.62
-83.289
-82.9
-82.474
-82.028
-81.581
-81.149
-80.748
-80.392
-80.095
-79.87
-79.729
-79.681
-79.736
-79.902
-80.183
-80.587
-81.115
-81.771
-82.552
-83.459
-84.487
-85.633
-86.892
-88.256
-89.716
-91.262
-92.884
-94.57
-96.308
-98.083
-99.882
-101.688
-103.489
-105.271
-107.02
-108.722
-110.364
-111.938
-113.437
-114.856
-116.19
-117.436
-118.59
-119.655
-120.629
-121.513
-122.305
-123.001
-123.603
-124.113
-124.541
-124.895
-125.183
-125.415
-125.601
-125.755
-125.892
-126.02
-126.141
-126.261
-126.388
-126.543
-126.76
-127.068
-127.483
-128.024
-128.703
-129.518
-130.469
-131.529
-132.645
-133.772
-134.867
-135.897
-136.857
-137.722
-138.456
-139.02
-139.351
-139.408
-139.179
-138.637
-137.77
-136.627
-135.276
-133.847
-132.53
-131.455
-130.748
-130.559
-131.001
-132.225
-134.381
-137.524
-141.759
-147.276
-154.109
-162.19
-171.253
-180.582
-189.491
-197.497
-203.883
-207.837
-208.918
-206.98
-202.543
-197.271
-192.611
-189.195
-188.135
-190.709
-197.075
-206.826
-217.035
-221.33
-216.046
-199.769
-172.673
-137.981
-93.151
-32.877
47.078
151.993
278.139
418.471
566.415
707.156
827.804
912.774
940.059
901.271
794.954
628.132
427.65
217.631
22.258
-132.024
-239.03
-300.061
-324.07
-332.911
-337.129
-339.539
-338.888
-326.001
-299.096
-262.676
-221.837
-183.348
-150.042
-121.45
-97.735
-78.554
-63.58
-53.213
-46.911
-43.832
-43.771
-46.077
-49.515
-53.35
-56.845
-58.946
-59.387
-58.175
-55.159
-50.864
-46.209
-41.595
-37.359
-33.914
-31.168
-28.989
-27.327
-25.746
-23.715
-20.988
-17.4
-12.871
-7.535
-1.479
5.246
12.477
20.056
27.858
35.762
43.691
51.592
59.397
67.049
74.495
81.688
88.599
95.213
101.526
107.54
113.257
118.671
123.773
128.553
133
137.112
140.883
144.31
147.391
150.124
152.509
154.552
156.251
157.606
158.612
159.259
159.547
159.479
159.059
158.293
157.189
155.756
154.004
151.946
149.593
146.956
144.043
140.865
137.432
133.757
129.852
125.733
121.413
116.906
112.228
107.396
102.424
97.329
92.126
86.829
81.453
76.013
70.523
64.998
59.451
53.895
48.344
42.811
37.309
31.849
26.445
21.107
15.847
10.675
5.601
0.635
-4.213
-8.933
-13.518
-17.958
-22.246
-26.375
-30.339
-34.134
-37.754
-41.196
-44.459
-47.541
-50.442
-53.16
-55.699
-58.059
-60.242
-62.253
-64.094
-65.77
-67.286
-68.649
-69.865
-70.94
-71.882
-72.7
-73.402
-73.998
-74.497
-74.909
-75.244
-75.512
-75.723
-75.888
-76.016
-76.115
-76.196
-76.265
-76.331
-76.4
-76.477
-76.568
-76.676
-76.804
-76.957
-77.134
-77.336
-77.562
-77.811
-78.082
-78.371
-78.674
-78.987
-79.303
-79.618
-79.924
-80.214
-80.48
-80.713
-80.902
-81.039
-81.114
-81.118
-81.043
-80.878
-80.616
-80.25
-79.776
-79.189
-78.485
-77.662
-76.723
-75.67
-74.505
-73.235
-71.866
-70.405
-68.861
-67.244
-65.563
-63.829
-62.054
-60.25
-58.433
-56.622
-54.834
-53.089
-51.405
-49.801
-48.3
-46.921
-45.674
-44.571
-43.627
-42.859
-42.296
-41.957
-41.851
-41.983
-42.354
-42.961
-43.796
-44.834
-46.024
-47.325
-48.7
-50.126
-51.603
-53.12
-54.65
-56.157
-57.587
-58.905
-60.108
-61.191
-62.138
-62.943
-63.627
-64.28
-65.053
-66.079
-67.436
-69.141
-71.19
-73.628
-76.541
-80.022
-84.154
-88.925
-94.31
-100.41
-107.259
-114.75
-122.556
-129.911
-135.998
-140.325
-142.439
-141.744
-137.957
-131.098
-121.73
-111.591
-102.387
-94.938
-90.248
-89.583
-93.486
-101.793
-111.673
-116.818
-111.865
-94.422
-67.109
-35.107
-0.279
40.104
97.289
182.398
299.516
447.933
613.762
778.111
922.603
1023.219
1060.557
1020.901
897.323
701.141
459.392
208.246
-12.353
-172.94
-265.753
-300.49
-300.48
-292.826
-290.406
-294.39
-297.815
-289.299
-266.671
-234.137
-197.835
-165.078
-138.439
-117.384
-101.329
-89.015
-79.912
-74.408
-71.844
-71.442
-72.688
-74.498
-76.321
-78.129
-79.387
-79.368
-77.956
-75.151
-71.293
-67.393
-63.899
-60.788
-58.228
-56.323
-54.985
-54.164
-53.535
-52.435
-50.528
-47.718
-43.939
-39.28
-33.806
-27.524
-20.546
-13.058
-5.187
2.952
11.274
19.738
28.255
36.731
45.097
53.287
61.259
68.996
76.481
83.71
90.692
97.429
103.918
110.153
116.123
121.819
127.24
132.377
137.233
141.805
146.092
150.097
153.821
157.258
160.402
163.242
165.763
167.96
169.829
171.366
172.572
173.445
173.984
174.193
174.074
173.629
172.857
171.759
170.333
168.581
166.506
164.112
161.404
158.387
155.068
151.454
147.554
143.378
138.936
134.238
129.295
124.12
118.725
113.124
107.331
101.361
95.228
88.948
82.538
76.013
69.391
62.688
55.922
49.11
42.271
35.423
28.584
21.772
15.008
8.308
1.692
-4.823
-11.22
-17.481
-23.59
-29.531
-35.29
-40.852
-46.204
-51.336
-56.236
-60.895
-65.304
-69.458
-73.352
-76.983
-80.348
-83.447
-86.28
-88.847
-91.151
-93.195
-94.983
-96.521
-97.814
-98.871
-99.702
-100.317
-100.727
-100.945
-100.982
-100.853
-100.569
-100.147
-99.599
-98.941
-98.188
-97.356
-96.464
-95.526
-94.56
-93.583
-92.607
-91.649
-90.722
-89.837
-89.005
-88.234
-87.53
-86.901
-86.354
-85.894
-85.53
-85.266
-85.11
-85.069
-85.149
-85.353
-85.681
-86.127
-86.685
-87.344
-88.093
-88.92
-89.813
-90.763
-91.759
-92.797
-93.871
-94.974
-96.094
-97.215
-98.313
-99.368
-100.37
-101.315
-102.211
-103.082
-103.965
-104.9
-105.927
-107.07
-108.34
-109.726
-111.196
-112.714
-114.229
-115.71
-117.157
-118.567
-119.938
-121.255
-122.474
-123.519
-124.291
-124.684
-124.594
-123.953
-122.713
-120.884
-118.533
-115.756
-112.696
-109.457
-106.066
-102.548
-98.906
-95.153
-91.357
-87.631
-84.114
-80.974
-78.359
-76.336
-74.954
-74.203
-74.019
-74.35
-75.049
-75.946
-77.074
-78.618
-80.951
-84.487
-89.353
-95.315
-102.071
-109.488
-117.388
-125.431
-132.77
-138.332
-141.527
-142.421
-141.578
-139.298
-135.553
-130.32
-124.181
-118.344
-114.063
-112.249
-112.991
-116.209
-122.204
-131.632
-144.876
-161.301
-177.34
-187.197
-186.68
-173.56
-150.807
-124.111
-92.644
-50.376
13.595
111.709
245.224
405.83
582.063
758.339
921.053
1059.137
1153.522
1183.748
1137.312
1008.141
810.952
578.172
341.784
135.611
-19.958
-125.776
-189.264
-227.565
-258.43
-286.245
-310.178
-324.224
-319.495
-295.896
-258.69
-214.307
-169.99
-128.881
-91.098
-57.273
-28.67
-6.512
8.749
17.756
21.751
21.579
17.766
11.37
4.377
-1.223
-4.328
-4.606
-2.332
2.091
8.435
16.129
23.961
30.846
36.238
39.982
42.395
43.948
44.899
45.615
46.666
48.426
51.094
54.744
59.216
64.332
70.01
76.12
82.526
89.149
95.892
102.671
109.441
116.116
122.62
128.908
134.93
140.657
146.083
151.197
156.007
160.535
164.789
168.772
172.481
175.902
179.033
181.88
184.447
186.743
188.775
190.546
192.064
193.335
194.357
195.128
195.641
195.887
195.866
195.577
195.024
194.211
193.142
191.823
190.259
188.456
186.419
184.152
181.657
178.937
175.997
172.843
169.481
165.916
162.157
158.21
154.085
149.789
145.332
140.723
135.97
131.083
126.073
120.95
115.726
110.413
105.023
99.569
94.065
88.526
82.964
77.394
71.83
66.285
60.774
55.311
49.91
44.583
39.344
34.208
29.186
24.293
19.54
14.938
10.498
6.228
2.138
-1.766
-5.477
-8.991
-12.303
-15.409
-18.308
-20.997
-23.478
-25.752
-27.822
-29.691
-31.365
-32.85
-34.154
-35.285
-36.252
-37.065
-37.733
-38.268
-38.681
-38.983
-39.186
-39.302
-39.345
-39.327
-39.26
-39.155
-39.025
-38.88
-38.729
-38.583
-38.447
-38.331
-38.238
-38.175
-38.147
-38.158
-38.21
-38.306
-38.445
-38.628
-38.852
-39.117
-39.418
-39.75
-40.108
-40.486
-40.877
-41.277
-41.676
-42.066
-42.44
-42.791
-43.108
-43.386
-43.613
-43.782
-43.885
-43.915
-43.868
-43.739
-43.523
-43.22
-42.832
-42.362
-41.814
-41.193
-40.507
-39.763
-38.969
-38.135
-37.267
-36.372
-35.459
-34.537
-33.618
-32.718
-31.849
-31.027
-30.266
-29.579
-28.983
-28.491
-28.105
-27.83
-27.671
-27.641
-27.767
-28.07
-28.562
-29.252
-30.147
-31.242
-32.526
-33.969
-35.514
-37.107
-38.697
-40.24
-41.719
-43.107
-44.365
-45.446
-46.288
-46.836
-47.069
-46.971
-46.511
-45.698
-44.598
-43.325
-42.071
-41.02
-40.283
-39.969
-40.2
-41.113
-42.859
-45.577
-49.325
-54.174
-60.303
-67.792
-76.554
-86.255
-96.188
-105.579
-113.833
-120.299
-124.093
-124.619
-121.808
-116.279
-109.564
-103.145
-98.027
-95.305
-96.38
-102.392
-111.638
-119.532
-121.36
-112.197
-92.92
-69.981
-42.679
-8.189
40.79
120.931
236.191
383.586
559.709
746.006
924.727
1079.23
1181.016
1208.829
1152.951
1010.572
801.831
560.633
317.054
103.044
-61.891
-178.168
-250.806
-294.77
-328.171
-356.414
-380.904
-397.835
-398.447
-382.547
-354.207
-318.293
-282.274
-249.356
-219.276
-192.656
-169.35
-149.097
-132.979
-121.073
-112.239
-106.163
-102.285
-99.298
-96.749
-94.241
-90.725
-86.016
-80.587
-74.624
-68.894
-64.49
-61.694
-60.656
-61.619
-64.336
-68.437
-73.582
-79.095
-84.228
-88.608
-91.979
-94.154
-95.098
-94.713
-92.922
-89.798
-85.494
-80.169
-74.006
-67.21
-59.951
-52.43
-44.858
-37.381
-30.108
-23.109
-16.418
-10.052
-4.054
1.527
6.66
11.313
15.474
19.159
22.393
25.231
27.731
29.949
31.935
33.724
35.336
36.776
38.04
39.107
39.964
40.609
41.036
41.251
41.259
41.056
40.642
40.011
39.156
38.072
36.753
35.195
33.397
31.36
29.091
26.6
23.898
20.992
17.893
14.604
11.134
7.49
3.678
-0.296
-4.423
-8.696
-13.102
-17.632
-22.271
-27.008
-31.829
-36.721
-41.668
-46.657
-51.673
-56.699
-61.722
-66.724
-71.691
-76.606
-81.454
-86.218
-90.884
-95.436
-99.861
-104.142
-108.268
-112.225
-116.002
-119.589
-122.974
-126.15
-129.108
-131.841
-134.345
-136.614
-138.645
-140.436
-141.989
-143.302
-144.38
-145.226
-145.845
-146.243
-146.428
-146.407
-146.191
-145.79
-145.214
-144.477
-143.592
-142.572
-141.43
-140.181
-138.84
-137.419
-135.933
-134.396
-132.82
-131.217
-129.6
-127.983
-126.375
-124.788
-123.231
-121.711
-120.238
-118.818
-117.455
-116.154
-114.917
-113.746
-112.642
-111.606
-110.637
-109.731
-108.886
-108.097
-107.36
-106.67
-106.02
-105.403
-104.81
-104.235
-103.671
-103.11
-102.547
-101.974
-101.386
-100.781
-100.156
-99.511
-98.844
-98.153
-97.439
-96.702
-95.944
-95.162
-94.356
-93.525
-92.669
-91.796
-90.911
-90.02
-89.131
-88.249
-87.385
-86.553
-85.761
-85.006
-84.292
-83.623
-83.012
-82.488
-82.07
-81.763
-81.576
-81.513
-81.571
-81.741
-81.993
-82.268
-82.514
-82.686
-82.751
-82.706
-82.528
-82.179
-81.617
-80.783
-79.653
-78.234
-76.52
-74.491
-72.176
-69.657
-67.079
-64.663
-62.57
-60.898
-59.752
-59.223
-59.437
-60.521
-62.563
-65.616
-69.753
-75.114
-81.75
-89.604
-98.38
-107.466
-116.165
-123.787
-129.548
-132.552
-132.274
-128.559
-121.632
-112.745
-103.397
-94.865
-89.102
-86.757
-86.014
-85.18
-81.963
-77.284
-77.307
-83.351
-91.212
-87.141
-47.795
37.275
164.342
318.068
470.074
606.637
730.637
842.829
947.11
1033.295
1071.51
1044.851
946.097
779.255
571.804
348.477
131.19
-54.66
-195.784
-284.821
-323.119
-325.716
-309.619
-290.644
-276.28
-266.037
-257.554
-244.932
-227.072
-204.912
-177.743
-149.819
-123.266
-98.495
-77.667
-59.479
-42.884
-29.063
-18.588
-12.298
-10.96
-13.637
-18.625
-24.777
-30.918
-35.949
-39.243
-40.321
-38.953
-35.698
-31.622
-27.474
-23.81
-20.889
-18.617
-16.925
-15.7
-14.595
-13.109
-10.887
-7.737
-3.657
1.181
6.64
12.62
19.001
25.635
32.39
39.153
45.828
52.383
58.798
65.033
71.061
76.855
82.392
87.677
92.738
97.589
102.236
106.68
110.909
114.918
118.71
122.283
125.635
128.763
131.661
134.325
136.758
138.961
140.93
142.654
144.123
145.325
146.259
146.921
147.311
147.427
147.269
146.839
146.141
145.176
143.946
142.45
140.686
138.656
136.362
133.806
130.991
127.923
124.608
121.052
117.264
113.254
109.031
104.603
99.983
95.18
90.207
85.076
79.799
74.388
68.858
63.223
57.497
51.696
45.833
39.925
33.986
28.032
22.078
16.14
10.232
4.37
-1.43
-7.151
-12.779
-18.297
-23.69
-28.943
-34.042
-38.973
-43.726
-48.288
-52.651
-56.805
-60.741
-64.453
-67.935
-71.181
-74.187
-76.951
-79.47
-81.743
-83.773
-85.559
-87.107
-88.419
-89.5
-90.356
-90.992
-91.417
-91.636
-91.658
-91.49
-91.142
-90.622
-89.942
-89.113
-88.145
-87.049
-85.836
-84.52
-83.111
-81.62
-80.057
-78.432
-76.755
-75.038
-73.288
-71.516
-69.729
-67.935
-66.142
-64.358
-62.59
-60.842
-59.118
-57.422
-55.758
-54.13
-52.54
-50.99
-49.481
-48.019
-46.611
-45.262
-43.978
-42.761
-41.618
-40.551
-39.566
-38.662
-37.836
-37.082
-36.397
-35.782
-35.24
-34.77
-34.372
-34.042
-33.78
-33.589
-33.467
-33.408
-33.397
-33.423
-33.485
-33.591
-33.765
-34.02
-34.359
-34.787
-35.302
-35.894
-36.555
-37.248
-37.915
-38.504
-38.971
-39.286
-39.44
-39.401
-39.121
-38.549
-37.624
-36.313
-34.6
-32.465
-29.918
-27.005
-23.805
-20.44
-17.053
-13.773
-10.742
-8.118
-6.054
-4.722
-4.271
-4.86
-6.743
-10.033
-14.66
-20.372
-26.583
-32.62
-37.98
-42.053
-44.049
-43.576
-40.718
-36.141
-31.493
-28.468
-28.138
-31.492
-39.446
-52.088
-68.449
-86.14
-100.926
-108.31
-104.407
-85.446
-47.893
11.079
91.04
187.507
294.246
403.879
513.724
626.549
739.719
845.925
930.501
970.383
952.491
875.759
747.861
586.713
409.966
231.323
66.912
-66.052
-157.49
-204.158
-214.474
-208.149
-198.376
-190.818
-184.812
-172.957
-153.843
-131.491
-109.804
-93.169
-82.618
-76.256
-72.543
-69.896
-66.659
-61.465
-53.593
-43.108
-30.603
-17.006
-3.102
10.584
23.375
34.521
43.643
50.68
55.798
59.404
61.83
63.29
64.098
64.573
65.004
65.709
66.881
68.595
70.932
73.931
77.607
81.996
87.077
92.769
99.003
105.699
112.777
120.182
127.831
135.622
143.451
151.198
158.778
166.143
173.253
180.086
186.627
192.862
198.799
204.468
209.888
215.072
220.026
224.749
229.247
233.536
237.628
241.534
245.26
248.807
252.174
255.361
258.365
261.179
263.791
266.186
268.356
270.292
271.988
273.439
274.639
275.58
276.258
276.668
276.805
276.663
276.235
275.515
274.498
273.182
271.564
269.643
267.42
264.896
262.075
258.962
255.562
251.883
247.932
243.721
239.26
234.562
229.642
224.515
219.196
213.704
208.058
202.277
196.382
190.394
184.334
178.223
172.085
165.941
159.815
153.727
147.702
141.759
135.921
130.208
124.639
119.233
114.005
108.97
104.144
99.536
95.16
91.022
87.13
83.491
80.107
76.982
74.116
71.507
69.152
67.049
65.19
63.57
62.18
61.013
60.059
59.308
58.749
58.371
58.161
58.106
58.193
58.408
58.736
59.166
59.685
60.278
60.935
61.644
62.394
63.176
63.98
64.795
65.612
66.421
67.212
67.978
68.709
69.4
70.041
70.625
71.145
71.594
71.966
72.253
72.444
72.526
72.486
72.314
71.998
71.527
70.885
70.06
69.04
67.818
66.388
64.744
62.877
60.775
58.429
55.832
52.977
49.863
46.483
42.832
38.906
34.707
30.248
25.545
20.61
15.445
10.038
4.379
-1.523
-7.652
-13.997
-20.542
-27.27
-34.162
-41.165
-48.221
-55.269
-62.249
-69.139
-75.948
-82.678
-89.319
-95.803
-102.019
-107.918
-113.506
-118.789
-123.814
-128.532
-132.773
-136.642
-140.47
-144.563
-149.302
-154.751
-160.484
-166.408
-172.897
-179.848
-186.767
-192.846
-196.576
-197.282
-195.605
-191.673
-185.03
-175.874
-164.841
-153.548
-145.282
-142.205
-144.549
-152.925
-168.01
-189.454
-216.084
-244.756
-269.815
-286.303
-290.664
-278.894
-247.373
-193.691
-118.642
-27.376
73.127
177.13
283.983
394.923
505.199
602.121
665.859
678.236
632.62
536.934
407.902
259.034
101.475
-58.123
-212.395
-342.877
-436.168
-486.503
-497.194
-486.612
-468.65
-449.409
-430.541
-406.939
-378.032
-348.159
-320.991
-300.333
-287.123
-279.617
-276.266
-275.305
-274.789
-273.176
-269.604
-263.952
-256.658
-248.454
-239.953
-231.653
-224.195
-218.205
-213.958
-211.416
-210.315
-210.241
-210.83
-211.789
-212.785
-213.468
-213.588
-212.995
-211.625
-209.488
-206.591
-202.935
-198.537
-193.443
-187.719
-181.446
-174.699
-167.549
-160.082
-152.4
-144.614
-136.843
-129.178
-121.678
-114.389
-107.339
-100.552
-94.044
-87.82
-81.869
-76.187
-70.772
-65.624
-60.752
-56.153
-51.822
-47.752
-43.933
-40.362
-37.04
-33.968
-31.149
-28.587
-26.287
-24.257
-22.511
-21.052
-19.885
-19.011
-18.428
-18.136
-18.135
-18.425
-19
-19.858
-20.999
-22.419
-24.117
-26.091
-28.335
-30.845
-33.615
-36.638
-39.908
-43.416
-47.153
-51.108
-55.272
-59.633
-64.18
-68.9
-73.781
-78.807
-83.966
-89.243
-94.622
-100.089
-105.626
-111.218
-116.847
-122.498
-128.153
-133.796
-139.409
-144.977
-150.482
-155.908
-161.24
-166.462
-171.556
-176.508
-181.303
-185.927
-190.365
-194.606
-198.636
-202.446
-206.024
-209.364
-212.458
-215.3
-217.885
-220.209
-222.269
-224.066
-225.597
-226.865
-227.87
-228.615
-229.103
-229.339
-229.33
-229.082
-228.601
-227.896
-226.975
-225.848
-224.523
-223.011
-221.319
-219.458
-217.437
-215.269
-212.963
-210.531
-207.982
-205.328
-202.582
-199.755
-196.858
-193.901
-190.893
-187.843
-184.762
-181.657
-178.536
-175.407
-172.278
-169.16
-166.064
-163.001
-159.983
-157.018
-154.115
-151.285
-148.536
-145.872
-143.292
-140.8
-138.396
-136.09
-133.887
-131.792
-129.805
-127.93
-126.17
-124.529
-123.007
-121.597
-120.285
-119.066
-117.943
-116.929
-116.045
-115.304
-114.71
-114.265
-113.971
-113.828
-113.826
-113.933
-114.095
-114.266
-114.407
-114.494
-114.512
-114.418
-114.153
-113.663
-112.886
-111.786
-110.347
-108.552
-106.389
-103.889
-101.095
-98.075
-94.963
-91.893
-89.005
-86.462
-84.408
-82.99
-82.416
-82.95
-84.743
-87.739
-91.664
-96.034
-100.362
-104.282
-107.348
-108.857
-108.333
-105.936
-102.449
-99.314
-98.027
-99.404
-104.094
-113.151
-127.017
-144.723
-163.905
-180.799
-191.305
-192.066
-179.83
-150.572
-100.591
-30.396
55.485
152.199
253.562
359.149
474.51
595.917
715.458
817.956
876.039
875.108
809.783
683.173
520.096
343.046
173.734
35.95
-65.414
-130.101
-163.743
-184.019
-198.945
-210.679
-218.71
-215.072
-197.84
-172.252
-144.224
-120.115
-102.904
-91.73
-85.173
-82.091
-81.394
-81.459
-80.347
-76.85
-70.671
-62.301
-52.608
-42.207
-31.583
-21.465
-12.672
-5.703
-0.695
2.541
4.419
5.265
5.313
4.852
4.178
3.565
3.284
3.517
4.34
5.826
8.025
10.957
14.658
19.127
24.307
30.135
36.534
43.424
50.74
58.409
66.344
74.445
82.602
90.724
98.755
106.65
114.373
121.898
129.193
136.246
143.062
149.645
155.992
162.096
167.94
173.516
178.819
183.85
188.605
193.079
197.257
201.13
204.686
207.913
210.799
213.327
215.48
217.244
218.61
219.574
220.13
220.276
220.009
219.329
218.241
216.747
214.851
212.558
209.875
206.81
203.373
199.577
195.436
190.964
186.177
181.095
175.736
170.122
164.273
158.211
151.961
145.545
138.988
132.317
125.557
118.732
111.868
104.992
98.128
91.302
84.538
77.859
71.287
64.846
58.554
52.431
46.494
40.76
35.243
29.956
24.91
20.115
15.579
11.308
7.305
3.574
0.114
-3.076
-6
-8.664
-11.072
-13.236
-15.164
-16.869
-18.362
-19.658
-20.771
-21.715
-22.508
-23.163
-23.698
-24.127
-24.468
-24.736
-24.947
-25.116
-25.257
-25.383
-25.505
-25.636
-25.783
-25.956
-26.159
-26.398
-26.676
-26.997
-27.361
-27.769
-28.217
-28.703
-29.223
-29.771
-30.341
-30.924
-31.51
-32.091
-32.657
-33.197
-33.704
-34.165
-34.573
-34.922
-35.205
-35.418
-35.557
-35.615
-35.591
-35.481
-35.285
-34.996
-34.614
-34.135
-33.561
-32.897
-32.152
-31.331
-30.446
-29.505
-28.52
-27.505
-26.472
-25.424
-24.367
-23.31
-22.273
-21.291
-20.392
-19.595
-18.916
-18.371
-17.963
-17.69
-17.531
-17.436
-17.357
-17.253
-17.095
-16.875
-16.578
-16.176
-15.624
-14.868
-13.868
-12.616
-11.106
-9.323
-7.288
-5.077
-2.822
-0.726
1.024
2.306
2.999
2.967
2.079
0.176
-2.908
-7.248
-12.945
-20.176
-28.919
-39.022
-50.145
-61.54
-72.436
-82.253
-90.18
-95.325
-97.422
-96.519
-93.242
-89.218
-85.647
-83.165
-82.904
-85.86
-91.791
-99.701
-107.133
-109.9
-104.808
-89.119
-59.167
-11.7
55.466
140.987
238.913
342.437
445.144
546.834
653.198
761.722
865.828
949.395
982.636
951.138
850.012
683.924
483.291
274.199
81.088
-67.642
-166.701
-218.42
-232.272
-232.177
-229.595
-227.44
-225.344
-214.385
-193.375
-167.999
-142.711
-122.903
-110.462
-103.506
-100.39
-99.519
-98.833
-96.471
-91.519
-83.797
-73.738
-62.312
-50.296
-38.185
-26.765
-16.922
-9.09
-3.404
0.307
2.515
3.565
3.689
3.225
2.503
1.826
1.525
1.784
2.665
4.238
6.532
9.553
13.335
17.849
23.011
28.747
34.968
41.59
48.55
55.758
63.11
70.49
77.771
84.858
91.692
98.228
104.433
110.288
115.77
120.881
125.645
130.078
134.188
137.98
141.451
144.603
147.453
150.013
152.296
154.312
156.063
157.555
158.791
159.772
160.498
160.963
161.158
161.079
160.725
160.098
159.2
158.033
156.598
154.9
152.943
150.733
148.271
145.561
142.607
139.411
135.98
132.318
128.431
124.327
120.011
115.492
110.78
105.883
100.812
95.576
90.187
84.656
78.996
73.221
67.344
61.379
55.343
49.251
43.121
36.97
30.816
24.677
18.57
12.515
6.527
0.626
-5.173
-10.852
-16.396
-21.79
-27.017
-32.066
-36.922
-41.574
-46.011
-50.224
-54.205
-57.947
-61.445
-64.694
-67.693
-70.439
-72.934
-75.178
-77.174
-78.927
-80.441
-81.723
-82.782
-83.627
-84.267
-84.715
-84.983
-85.085
-85.035
-84.848
-84.538
-84.122
-83.613
-83.028
-82.38
-81.682
-80.949
-80.191
-79.421
-78.651
-77.89
-77.148
-76.432
-75.749
-75.106
-74.508
-73.957
-73.456
-73.006
-72.606
-72.258
-71.961
-71.71
-71.503
-71.337
-71.207
-71.108
-71.036
-70.983
-70.941
-70.903
-70.861
-70.808
-70.736
-70.637
-70.505
-70.336
-70.13
-69.886
-69.606
-69.288
-68.936
-68.551
-68.139
-67.701
-67.233
-66.735
-66.207
-65.655
-65.088
-64.514
-63.937
-63.363
-62.799
-62.255
-61.741
-61.258
-60.796
-60.354
-59.937
-59.565
-59.271
-59.077
-58.994
-59.035
-59.202
-59.496
-59.911
-60.417
-60.953
-61.468
-61.918
-62.276
-62.535
-62.66
-62.598
-62.291
-61.667
-60.686
-59.326
-57.557
-55.38
-52.84
-50.015
-47.038
-44.057
-41.203
-38.622
-36.483
-34.937
-34.141
-34.217
-35.313
-37.696
-41.511
-46.693
-52.964
-59.721
-66.337
-72.405
-77.35
-80.293
-80.692
-78.556
-74.611
-70.51
-67.666
-66.88
-69.212
-75.975
-87.921
-103.241
-117.317
-124.953
-122.521
-111.686
-96.513
-75.684
-42.906
12.64
101.467
223.342
369.658
528.494
687.619
837.621
968.91
1068.046
1115.662
1095.216
999.854
833.538
619.686
389.661
173.601
1.009
-117.941
-187.407
-218.73
-234.021
-245.101
-253.582
-257.907
-249.869
-228.213
-199.095
-168.84
-144.192
-127.814
-118.349
-114.082
-113.18
-113.799
-114.157
-112.3
-107.098
-98.597
-87.493
-74.803
-61.405
-48.006
-35.426
-24.539
-15.829
-9.345
-4.876
-1.995
-0.33
0.37
0.399
0.073
-0.341
-0.567
-0.371
0.363
1.725
3.779
6.54
10.036
14.266
19.164
24.641
30.605
36.957
43.622
50.534
57.598
64.715
71.772
78.655
85.288
91.623
97.619
103.251
108.501
113.358
117.838
121.97
125.773
129.26
132.439
135.312
137.89
140.191
142.229
144.018
145.566
146.878
147.961
148.821
149.458
149.871
150.057
150.009
149.726
149.207
148.455
147.472
146.26
144.821
143.158
141.277
139.181
136.872
134.354
131.628
128.7
125.574
122.255
118.748
115.06
111.197
107.169
102.982
98.647
94.172
89.569
84.847
80.02
75.1
70.101
65.037
59.922
54.773
49.605
44.437
39.284
34.165
29.096
24.095
19.179
14.366
9.671
5.109
0.696
-3.553
-7.627
-11.511
-15.194
-18.667
-21.921
-24.949
-27.745
-30.304
-32.625
-34.707
-36.552
-38.16
-39.538
-40.689
-41.621
-42.344
-42.867
-43.202
-43.36
-43.357
-43.208
-42.928
-42.534
-42.045
-41.477
-40.849
-40.178
-39.484
-38.783
-38.093
-37.43
-36.809
-36.246
-35.755
-35.348
-35.037
-34.832
-34.741
-34.772
-34.93
-35.219
-35.641
-36.196
-36.882
-37.697
-38.638
-39.7
-40.874
-42.154
-43.531
-44.995
-46.535
-48.14
-49.795
-51.488
-53.204
-54.929
-56.651
-58.353
-60.022
-61.644
-63.206
-64.697
-66.107
-67.424
-68.637
-69.741
-70.727
-71.592
-72.332
-72.944
-73.426
-73.783
-74.021
-74.149
-74.176
-74.112
-73.968
-73.76
-73.501
-73.205
-72.882
-72.539
-72.19
-71.848
-71.53
-71.252
-71.03
-70.878
-70.81
-70.844
-70.994
-71.266
-71.661
-72.176
-72.817
-73.597
-74.54
-75.661
-76.969
-78.471
-80.169
-82.054
-84.11
-86.3
-88.562
-90.842
-93.095
-95.287
-97.394
-99.378
-101.188
-102.766
-104.054
-105.007
-105.591
-105.757
-105.481
-104.805
-103.806
-102.614
-101.37
-100.156
-99.065
-98.218
-97.73
-97.732
-98.35
-99.652
-101.778
-104.99
-109.358
-114.821
-121.127
-127.594
-133.545
-138.438
-141.449
-141.653
-138.811
-133.031
-124.823
-116.025
-108.401
-103.243
-102.864
-107.787
-115.39
-123.56
-129.481
-133.382
-140.927
-152.035
-160.682
-151.815
-104.164
-11.112
122.928
281.198
439.893
593.057
738.459
872.701
991.717
1069.678
1079.678
1009.569
855.776
640.539
400.27
165.048
-33.847
-178.524
-270.63
-316.691
-333.602
-340.458
-343.854
-345.076
-340.77
-324.613
-297.435
-264.449
-230.744
-201.172
-177.432
-159.192
-145.705
-136.077
-130.053
-126.859
-125.711
-126.465
-128.479
-130.756
-132.871
-134.226
-133.992
-132.172
-128.883
-124.107
-118.496
-112.952
-107.923
-103.839
-101.11
-99.671
-99.357
-99.947
-100.887
-101.574
-101.671
-100.974
-99.371
-96.907
-93.622
-89.571
-84.902
-79.78
-74.31
-68.555
-62.562
-56.364
-50.045
-43.727
-37.505
-31.448
-25.605
-20.002
-14.656
-9.587
-4.794
-0.25
4.059
8.138
11.988
15.595
18.952
22.063
24.936
27.58
30.004
32.217
34.22
36.018
37.608
38.986
40.142
41.065
41.745
42.181
42.369
42.309
42.003
41.451
40.654
39.617
38.341
36.827
35.077
33.091
30.872
28.425
25.755
22.867
19.768
16.466
12.97
9.292
5.442
1.432
-2.727
-7.019
-11.432
-15.95
-20.556
-25.236
-29.971
-34.744
-39.535
-44.325
-49.094
-53.822
-58.489
-63.076
-67.564
-71.933
-76.166
-80.245
-84.155
-87.879
-91.401
-94.708
-97.785
-100.62
-103.203
-105.524
-107.574
-109.349
-110.843
-112.054
-112.983
-113.628
-113.994
-114.084
-113.905
-113.464
-112.77
-111.835
-110.67
-109.291
-107.713
-105.952
-104.027
-101.957
-99.762
-97.461
-95.075
-92.624
-90.127
-87.605
-85.078
-82.563
-80.081
-77.649
-75.283
-73.002
-70.821
-68.754
-66.815
-65.017
-63.369
-61.882
-60.563
-59.418
-58.452
-57.667
-57.065
-56.644
-56.405
-56.342
-56.451
-56.723
-57.151
-57.723
-58.428
-59.254
-60.186
-61.208
-62.305
-63.462
-64.664
-65.895
-67.137
-68.376
-69.597
-70.784
-71.925
-73.005
-74.01
-74.926
-75.743
-76.45
-77.038
-77.496
-77.819
-78.003
-78.047
-77.953
-77.722
-77.358
-76.866
-76.253
-75.528
-74.699
-73.772
-72.752
-71.65
-70.477
-69.253
-67.993
-66.709
-65.416
-64.127
-62.858
-61.624
-60.432
-59.28
-58.174
-57.122
-56.142
-55.271
-54.532
-53.938
-53.501
-53.226
-53.113
-53.165
-53.355
-53.637
-53.972
-54.319
-54.654
-54.975
-55.248
-55.429
-55.46
-55.256
-54.766
-53.963
-52.81
-51.297
-49.446
-47.297
-44.944
-42.519
-40.134
-37.921
-36.02
-34.567
-33.74
-33.671
-34.524
-36.567
-39.922
-44.536
-50.18
-56.294
-62.215
-67.505
-71.639
-73.845
-73.688
-71.147
-66.831
-62.273
-59.188
-58.628
-61.208
-67.97
-79.654
-95.717
-114.373
-130.945
-138.606
-133.725
-114.511
-80.501
-34.459
25.487
102.696
198.976
317.869
456.62
610.878
774.307
932.154
1068.84
1160.724
1182.304
1122.167
977.469
765.441
521.158
276.503
64.026
-95.493
-200.638
-254.999
-272.129
-267.844
-252.155
-235.524
-222.105
-213.263
-208.364
-201.266
-188.769
-168.044
-139.115
-108.093
-78.387
-52.323
-31.163
-12.489
4.396
18.354
28.598
34.038
34.252
30.436
24.257
16.938
9.835
4.139
0.498
-0.644
0.799
4.15
8.349
12.636
16.391
19.331
21.522
23.033
24.019
24.855
26.036
27.913
30.675
34.321
38.685
43.633
49.06
54.847
60.848
66.937
73.016
79.003
84.877
90.622
96.208
101.611
106.808
111.782
116.541
121.112
125.51
129.739
133.802
137.687
141.389
144.908
148.239
151.375
154.31
157.032
159.536
161.817
163.872
165.69
167.26
168.563
169.586
170.319
170.756
170.892
170.72
170.236
169.439
168.328
166.903
165.162
163.103
160.726
158.029
155.016
151.691
148.058
144.125
139.901
135.396
130.623
125.596
120.328
114.835
109.134
103.242
97.178
90.96
84.608
78.143
71.584
64.953
58.271
51.559
44.839
38.13
31.452
24.825
18.268
11.798
5.433
-0.81
-6.917
-12.871
-18.659
-24.268
-29.688
-34.907
-39.918
-44.713
-49.289
-53.641
-57.768
-61.671
-65.349
-68.806
-72.045
-75.073
-77.894
-80.517
-82.949
-85.201
-87.283
-89.205
-90.979
-92.616
-94.127
-95.525
-96.821
-98.026
-99.15
-100.205
-101.199
-102.144
-103.047
-103.918
-104.764
-105.593
-106.411
-107.223
-108.034
-108.846
-109.662
-110.481
-111.305
-112.132
-112.961
-113.788
-114.61
-115.423
-116.222
-117.001
-117.754
-118.474
-119.152
-119.78
-120.352
-120.857
-121.288
-121.637
-121.897
-122.062
-122.125
-122.081
-121.926
-121.655
-121.264
-120.748
-120.107
-119.338
-118.439
-117.411
-116.255
-114.979
-113.59
-112.099
-110.512
-108.841
-107.099
-105.296
-103.444
-101.551
-99.622
-97.664
-95.69
-93.711
-91.741
-89.789
-87.864
-85.979
-84.146
-82.376
-80.674
-79.042
-77.477
-75.984
-74.577
-73.275
-72.104
-71.087
-70.233
-69.553
-69.06
-68.753
-68.626
-68.649
-68.769
-68.941
-69.13
-69.3
-69.424
-69.45
-69.315
-68.966
-68.336
-67.378
-66.068
-64.383
-62.312
-59.879
-57.108
-54.071
-50.919
-47.796
-44.872
-42.329
-40.29
-38.964
-38.634
-39.465
-41.516
-44.639
-48.389
-52.302
-56.005
-58.984
-60.655
-60.628
-58.725
-55.477
-52.199
-50.287
-50.996
-55.409
-64.35
-78.254
-96.889
-118.473
-139.589
-156.205
-164.18
-159.511
-138.503
-97.896
-35.087
49.063
149.352
259.65
373.126
485.535
598.399
710.652
815.33
901.655
950.911
945.165
879.704
755.899
583.195
383.96
177.426
-13.43
-160.312
-253.142
-291.552
-287.408
-268.342
-250.136
-238.344
-231.849
-219.875
-198.762
-171.895
-143.186
-118.549
-100.575
-87.799
-78.83
-72.356
-67.524
-64.273
-62.502
-61.599
-60.671
-59.504
-58.182
-56.687
-54.957
-52.576
-49.176
-45.047
-40.969
-37.38
-34.398
-31.979
-29.964
-28.459
-27.536
-26.905
-26.044
-24.526
-22.131
-18.83
-14.72
-9.805
-4.073
2.395
9.462
16.968
24.79
32.858
41.132
49.548
58.005
66.407
74.679
82.765
90.634
98.264
105.633
112.731
119.563
126.13
132.431
138.46
144.207
149.662
154.821
159.681
164.242
168.505
172.471
176.143
179.519
182.596
185.368
187.829
189.97
191.787
193.28
194.448
195.295
195.823
196.035
195.939
195.538
194.838
193.844
192.557
190.983
189.127
186.996
184.598
181.941
179.033
175.885
172.508
168.913
165.112
161.117
156.94
152.592
148.088
143.439
138.657
133.757
128.748
123.645
118.46
113.206
107.896
102.542
97.159
91.759
86.355
80.961
75.592
70.259
64.978
59.761
54.624
49.58
44.644
39.827
35.143
30.605
26.222
22.005
17.963
14.104
10.435
6.962
3.692
0.628
-2.226
-4.867
-7.292
-9.499
-11.489
-13.261
-14.816
-16.155
-17.281
-18.198
-18.908
-19.417
-19.731
-19.855
-19.797
-19.564
-19.164
-18.609
-17.907
-17.069
-16.107
-15.031
-13.855
-12.588
-11.244
-9.832
-8.362
-6.844
-5.288
-3.702
-2.095
-0.475
1.152
2.778
4.396
6
7.586
9.148
10.682
12.186
13.655
15.086
16.479
17.83
19.14
20.405
21.624
22.797
23.923
25.003
26.04
27.034
27.987
28.901
29.78
30.627
31.442
32.223
32.966
33.668
34.324
34.931
35.482
35.971
36.393
36.749
37.04
37.267
37.426
37.513
37.523
37.451
37.298
37.06
36.732
36.311
35.798
35.197
34.52
33.77
32.941
32.02
30.982
29.81
28.497
27.039
25.432
23.681
21.795
19.806
17.767
15.726
13.724
11.794
9.963
8.279
6.798
5.582
4.694
4.191
4.102
4.432
5.174
6.289
7.727
9.435
11.291
13.147
14.841
16.19
17.027
17.22
16.575
14.797
11.744
7.463
2.229
-3.324
-8.585
-13.157
-16.547
-18.099
-17.511
-14.952
-11.233
-8.137
-7.341
-9.781
-16.276
-27.552
-43.492
-62.953
-83.339
-100.261
-109.302
-106.72
-88.866
-52.388
5.409
83.911
178.445
283.178
391.401
501.038
615.185
730.273
837.717
922.174
960.592
941.427
865.287
740.51
584.573
412.981
237.103
71.578
-66.634
-165.632
-219.848
-235.824
-231.735
-220.61
-208.227
-193.556
-169.749
-136.395
-98.66
-62.128
-32.551
-11.77
0.897
5.407
2.808
-4.844
-15.039
-24.982
-33.091
-39.073
-42.66
-43.196
-40.475
-34.929
-27.783
-20.784
-14.888
-10.266
-6.991
-5.179
-4.874
-5.999
-8.068
-10.195
-11.817
-12.718
-12.808
-12.132
-10.683
-8.384
-5.265
-1.477
2.855
7.642
12.836
18.453
24.465
30.786
37.319
43.942
50.566
57.14
63.626
69.993
76.213
82.26
88.118
93.789
99.271
104.558
109.636
114.479
119.073
123.413
127.5
131.341
134.935
138.273
141.346
144.144
146.655
148.87
150.773
152.348
153.579
154.46
154.982
155.144
154.94
154.367
153.421
152.101
150.407
148.338
145.894
143.077
139.89
136.337
132.427
128.167
123.567
118.638
113.393
107.844
102.008
95.899
89.534
82.929
76.104
69.078
61.87
54.501
46.994
39.37
31.652
23.863
16.028
8.17
0.314
-7.518
-15.3
-23.009
-30.622
-38.115
-45.467
-52.655
-59.658
-66.455
-73.028
-79.358
-85.43
-91.228
-96.74
-101.954
-106.86
-111.451
-115.721
-119.666
-123.282
-126.57
-129.53
-132.165
-134.481
-136.483
-138.181
-139.584
-140.703
-141.553
-142.147
-142.5
-142.631
-142.556
-142.296
-141.869
-141.296
-140.598
-139.797
-138.914
-137.971
-136.992
-135.995
-135.004
-134.039
-133.119
-132.263
-131.489
-130.81
-130.243
-129.8
-129.493
-129.332
-129.323
-129.474
-129.787
-130.266
-130.911
-131.72
-132.689
-133.812
-135.082
-136.491
-138.028
-139.682
-141.439
-143.285
-145.205
-147.185
-149.208
-151.256
-153.312
-155.356
-157.372
-159.342
-161.247
-163.07
-164.794
-166.407
-167.898
-169.259
-170.482
-171.559
-172.487
-173.262
-173.886
-174.354
-174.663
-174.813
-174.804
-174.644
-174.345
-173.915
-173.362
-172.697
-171.933
-171.085
-170.168
-169.191
-168.155
-167.072
-165.958
-164.847
-163.777
-162.781
-161.878
-161.088
-160.43
-159.922
-159.577
-159.384
-159.312
-159.335
-159.436
-159.611
-159.866
-160.178
-160.5
-160.769
-160.926
-160.929
-160.765
-160.416
-159.863
-159.124
-158.233
-157.253
-156.297
-155.465
-154.849
-154.566
-154.731
-155.458
-156.946
-159.452
-163.137
-168.034
-173.936
-180.368
-186.82
-192.823
-197.819
-201.159
-202.35
-201.279
-198.613
-195.815
-194.524
-196.165
-201.853
-212.488
-228.63
-250.004
-274.671
-298.972
-318.47
-328.779
-325.851
-305.852
-265.169
-200.937
-114.639
-12.223
99.929
214.383
329.354
449.298
570.871
687.029
782.438
828.89
811.634
725.675
575.813
390.646
195.219
12.2
-133.675
-238.452
-303.498
-334.907
-351.042
-360.09
-364.287
-364.079
-352.682
-329.56
-300.221
-270.057
-245.13
-227.91
-217.264
-211.743
-209.725
-209.542
-209.555
-207.941
-203.651
-196.701
-187.617
-177.238
-166.304
-155.403
-145.284
-136.754
-130.222
-125.707
-123.005
-121.7
-121.458
-122.057
-123.182
-124.516
-125.78
-126.685
-127.061
-126.841
-125.951
-124.348
-122.011
-118.903
-115.041
-110.498
-105.337
-99.633
-93.463
-86.876
-79.951
-72.781
-65.467
-58.119
-50.82
-43.618
-36.556
-29.662
-22.959
-16.469
-10.195
-4.117
1.77
7.468
12.975
18.275
23.364
28.244
32.914
37.372
41.611
45.618
49.38
52.885
56.118
59.059
61.688
63.981
65.919
67.485
68.668
69.454
69.833
69.792
69.322
68.419
67.073
65.28
63.032
60.327
57.16
53.534
49.451
44.913
39.929
34.505
28.653
22.386
15.719
8.669
1.253
-6.506
-14.585
-22.96
-31.605
-40.49
-49.587
-58.864
-68.29
-77.831
-87.455
-97.127
-106.815
-116.485
-126.102
-135.634
-145.048
-154.311
-163.394
-172.266
-180.897
-189.26
-197.33
-205.082
-212.496
-219.551
-226.231
-232.52
-238.409
-243.887
-248.947
-253.587
-257.804
-261.6
-264.978
-267.945
-270.51
-272.684
-274.478
-275.91
-276.995
-277.751
-278.198
-278.357
-278.249
-277.896
-277.323
-276.551
-275.606
-274.511
-273.291
-271.97
-270.571
-269.118
-267.633
-266.137
-264.651
-263.193
-261.782
-260.432
-259.158
-257.974
-256.89
-255.918
-255.064
-254.337
-253.741
-253.28
-252.957
-252.772
-252.725
-252.812
-253.03
-253.376
-253.844
-254.429
-255.124
-255.921
-256.815
-257.797
-258.858
-259.988
-261.177
-262.414
-263.689
-264.989
-266.302
-267.617
-268.922
-270.206
-271.459
-272.671
-273.832
-274.933
-275.964
-276.915
-277.778
-278.546
-279.209
-279.76
-280.19
-280.495
-280.671
-280.718
-280.634
-280.416
-280.062
-279.573
-278.945
-278.175
-277.257
-276.178
-274.931
-273.509
-271.909
-270.127
-268.162
-266.01
-263.674
-261.156
-258.452
-255.561
-252.475
-249.178
-245.667
-241.938
-237.995
-233.856
-229.537
-225.044
-220.387
-215.566
-210.569
-205.379
-199.963
-194.267
-188.256
-181.89
-175.14
-167.998
-160.442
-152.464
-144.061
-135.203
-125.867
-116.047
-105.749
-95.024
-83.967
-72.668
-61.241
-49.828
-38.557
-27.614
-17.182
-7.4
1.584
9.726
16.949
23.029
27.887
31.597
34.419
36.96
39.796
43.214
47.759
54.203
62.772
73.467
85.665
97.766
108.756
117.972
123.93
125.309
122.029
115.844
111.006
112.668
123.35
140.729
161.643
185.677
215.752
262.617
337.128
442.72
577.368
728.08
876.317
1004.628
1096.609
1139.676
1124.645
1047.996
912.513
732.546
532.983
340.833
182.598
70.37
1.688
-33.824
-54.583
-70.864
-84.059
-91.739
-85.266
-61.778
-25.222
19.162
64.365
106.493
145.076
179.543
208.69
231.15
246.291
254.552
257.022
254.745
248.566
239.75
230.507
223.039
218.591
217.672
220.127
225.49
233.4
243.104
253.228
262.612
270.617
277.005
282.04
286.095
289.384
292.281
295.329
298.881
303.135
308.136
313.708
319.699
326.037
332.615
339.331
346.113
352.888
359.598
366.207
372.673
378.957
385.028
390.856
396.427
401.734
406.783
411.594
416.18
420.543
424.682
428.584
432.241
435.653
438.823
441.751
444.443
446.898
449.117
451.104
452.858
454.374
455.642
456.645
457.374
457.822
457.985
457.857
457.436
456.715
455.691
454.364
452.73
450.784
448.523
445.941
443.036
439.806
436.25
432.369
428.163
423.635
418.787
413.624
408.152
402.375
396.301
389.937
383.293
376.378
369.204
361.783
354.128
346.252
338.172
329.904
321.465
312.873
304.148
295.308
286.373
277.363
268.298
259.198
250.083
240.972
231.888
222.849
213.876
204.988
196.204
187.542
179.02
170.653
162.459
154.45
146.641
139.044
131.671
124.531
117.634
110.988
104.599
98.474
92.615
87.024
81.702
76.647
71.856
67.325
63.047
59.015
55.221
51.658
48.315
45.182
42.248
39.5
36.923
34.505
32.23
30.082
28.045
26.104
24.241
22.443
20.694
18.979
17.282
15.588
13.881
12.148
10.376
8.549
6.657
4.686
2.628
0.473
-1.782
-4.141
-6.61
-9.188
-11.876
-14.673
-17.577
-20.584
-23.693
-26.903
-30.215
-33.627
-37.132
-40.72
-44.379
-48.094
-51.848
-55.625
-59.401
-63.15
-66.851
-70.485
-74.041
-77.518
-80.899
-84.16
-87.268
-90.181
-92.873
-95.337
-97.568
-99.565
-101.343
-102.919
-104.337
-105.665
-106.957
-108.239
-109.497
-110.678
-111.746
-112.71
-113.63
-114.592
-115.634
-116.714
-117.769
-118.761
-119.674
-120.529
-121.22
-121.441
-120.982
-119.913
-118.608
-117.617
-117.24
-117.238
-117.261
-117.352
-117.59
-117.738
-116.975
-113.896
-107.555
-98.495
-87.938
-76.551
-65.21
-55.11
-47.565
-45.294
-49.343
-56.755
-66.565
-79.586
-98.291
-129.434
-170.789
-211.199
-239.292
-241.99
-219.47
-184.833
-149.271
-124.151
-112.09
-106.265
-103.508
-101.188
-98.316
-97.718
-99.557
-102.887
-107.63
-112.659
-116.883
-120.009
-121.577
-121.077
-118.428
-113.575
-106.243
-96.577
-85.822
-75.651
-67.852
-65.094
-68.323
-75.253
-84.072
-92.66
-101.145
-116.012
-140.223
-168.554
-188.266
-176.696
-114.395
2.551
167.164
361.426
561.803
752.643
917.134
1038.133
1105.527
1107.082
1042.049
919.393
746.635
542.436
324.288
111.527
-67.245
-197.93
-275.659
-307.488
-317.992
-322.088
-325.861
-329.2
-321.853
-301.407
-272.855
-241.908
-216.029
-198.066
-186.19
-178.6
-173.16
-167.726
-161.285
-152.68
-141.006
-126.614
-110.572
-93.974
-78.222
-64.686
-53.596
-45.178
-39.774
-37.111
-36.804
-38.487
-41.242
-44.109
-47.064
-50.039
-52.766
-55.229
-57.204
-58.457
-59.159
-59.493
-59.248
-58.287
-56.531
-53.829
-50.258
-45.899
-40.763
-34.97
-28.695
-22.094
-15.346
-8.612
-1.971
4.502
10.76
16.808
22.64
28.263
33.688
38.906
43.906
48.667
53.189
57.505
61.641
65.62
69.463
73.183
76.794
80.32
83.757
87.082
90.273
93.306
96.158
98.822
101.284
103.529
105.544
107.31
108.811
110.033
110.961
111.578
111.866
111.804
111.378
110.578
109.396
107.825
105.857
103.486
100.71
97.529
93.947
89.964
85.586
80.819
75.672
70.159
64.293
58.091
51.571
44.755
37.665
30.327
22.769
15.02
7.109
-0.93
-9.067
-17.265
-25.493
-33.713
-41.891
-49.992
-57.978
-65.813
-73.462
-80.89
-88.062
-94.948
-101.515
-107.737
-113.588
-119.046
-124.089
-128.701
-132.865
-136.57
-139.806
-142.566
-144.848
-146.65
-147.974
-148.827
-149.217
-149.156
-148.658
-147.74
-146.422
-144.723
-142.668
-140.282
-137.592
-134.625
-131.411
-127.981
-124.366
-120.598
-116.71
-112.734
-108.702
-104.646
-100.594
-96.576
-92.619
-88.747
-84.984
-81.352
-77.868
-74.551
-71.416
-68.476
-65.741
-63.221
-60.921
-58.846
-56.996
-55.372
-53.968
-52.781
-51.802
-51.02
-50.427
-50.007
-49.749
-49.635
-49.649
-49.773
-49.987
-50.271
-50.604
-50.966
-51.334
-51.69
-52.012
-52.285
-52.489
-52.611
-52.635
-52.549
-52.343
-52.008
-51.537
-50.923
-50.161
-49.249
-48.188
-46.979
-45.626
-44.131
-42.504
-40.758
-38.912
-36.984
-34.996
-32.966
-30.916
-28.863
-26.826
-24.819
-22.856
-20.944
-19.091
-17.31
-15.615
-14.025
-12.555
-11.207
-9.974
-8.85
-7.817
-6.863
-5.981
-5.161
-4.407
-3.742
-3.192
-2.792
-2.57
-2.544
-2.71
-3.036
-3.481
-4.001
-4.574
-5.208
-5.902
-6.624
-7.313
-7.879
-8.207
-8.23
-7.846
-6.882
-5.289
-3.096
-0.477
2.078
4.096
5.438
6.04
5.953
5.62
5.377
5.722
7.924
13.139
21.83
34.158
49.562
66.658
84.567
102.342
117.886
128.887
133.446
130.094
118.563
99.707
73.802
41.129
4.616
-30.277
-58.075
-74.706
-81.364
-82.711
-78.337
-61.04
-16.294
68.562
193.329
346.528
506.705
656.842
794.407
920.345
1036.542
1137.392
1199.534
1200.41
1128.17
979.864
774.497
543.078
312.459
111.85
-39.29
-139.632
-193.737
-216.622
-227.395
-233.232
-234.901
-227.536
-203.443
-163.081
-111.756
-55.796
-2.109
45.91
86.353
116.264
134.286
140.372
135.101
120.358
98.167
70.218
39.4
9.729
-15.945
-36.032
-49.863
-57.998
-61.091
-59.633
-55.281
-50.445
-46.436
-44.055
-43.641
-44.34
-47.098
-52.981
-59.672
-65.888
-67.945
-61.736
-51.575
-40.592
-33.222
-35.403
-42.061
-48.925
-53.075
-49.608
-42.136
-34.258
-26.784
-21.946
-18.484
-14.782
-11.167
-7.425
-3.661
-0.213
3.127
6.517
9.879
13.179
16.423
19.595
22.673
25.643
28.462
31.085
33.525
35.793
37.875
39.76
41.432
42.874
44.081
45.052
45.781
46.26
46.487
46.457
46.17
45.624
44.816
43.743
42.402
40.788
38.902
36.744
34.316
31.619
28.657
25.434
21.956
18.227
14.256
10.05
5.615
0.963
-3.898
-8.955
-14.196
-19.607
-25.173
-30.879
-36.708
-42.643
-48.665
-54.757
-60.899
-67.073
-73.258
-79.437
-85.589
-91.695
-97.735
-103.69
-109.54
-115.267
-120.851
-126.274
-131.52
-136.571
-141.412
-146.027
-150.403
-154.527
-158.388
-161.977
-165.284
-168.303
-171.03
-173.461
-175.595
-177.432
-178.975
-180.229
-181.198
-181.89
-182.314
-182.48
-182.399
-182.083
-181.547
-180.803
-179.867
-178.753
-177.479
-176.061
-174.517
-172.863
-171.118
-169.301
-167.428
-165.518
-163.59
-161.66
-159.744
-157.859
-156.019
-154.239
-152.531
-150.906
-149.374
-147.942
-146.617
-145.406
-144.312
-143.336
-142.48
-141.74
-141.116
-140.603
-140.197
-139.89
-139.674
-139.542
-139.484
-139.49
-139.548
-139.646
-139.77
-139.906
-140.041
-140.16
-140.247
-140.287
-140.266
-140.17
-139.985
-139.699
-139.301
-138.782
-138.136
-137.359
-136.447
-135.4
-134.218
-132.902
-131.457
-129.885
-128.189
-126.373
-124.442
-122.402
-120.265
-118.044
-115.753
-113.408
-111.024
-108.616
-106.203
-103.801
-101.415
-99.058
-96.741
-94.486
-92.328
-90.299
-88.422
-86.715
-85.194
-83.86
-82.706
-81.709
-80.816
-79.979
-79.158
-78.321
-77.463
-76.571
-75.617
-74.563
-73.348
-71.923
-70.272
-68.385
-66.243
-63.868
-61.338
-58.783
-56.409
-54.396
-52.847
-51.858
-51.525
-51.961
-53.317
-55.74
-59.309
-64.142
-70.424
-78.197
-87.34
-97.453
-107.693
-117.149
-125.064
-130.61
-132.931
-131.656
-126.903
-119.532
-111.496
-104.708
-100.469
-100.078
-104.572
-113.898
-126.863
-140.666
-150.519
-151.693
-140.067
-111.194
-61.19
12.294
108.174
221.29
344.442
471.312
600.135
730.077
855.019
962.86
1033.808
1050.112
1007.466
911.93
780.765
632.133
474.272
315.223
161.622
20.97
-92.423
-172.688
-223.461
-250.372
-264.452
-271.086
-267.095
-252.146
-226.568
-192.849
-157.645
-124.415
-93.599
-65.95
-41.883
-21.812
-6.923
2.658
8.069
9.845
8.208
4.11
-1.098
-6.08
-9.24
-9.755
-7.754
-3.34
3.212
11.146
19.469
27.311
33.87
38.76
42.104
44.137
45.226
45.889
46.69
48.02
50.107
53.049
56.767
61.162
66.13
71.526
77.198
83.051
89.033
95.095
101.209
107.306
113.282
119.063
124.594
129.834
134.771
139.391
143.682
147.658
151.341
154.742
157.869
160.717
163.273
165.534
167.506
169.193
170.608
171.757
172.647
173.285
173.671
173.804
173.678
173.286
172.618
171.669
170.436
168.917
167.114
165.028
162.659
160.011
157.085
153.883
150.406
146.655
142.631
138.338
133.781
128.964
123.893
118.577
113.023
107.241
101.244
95.041
88.645
82.069
75.329
68.438
61.413
54.269
47.025
39.697
32.304
24.866
17.401
9.93
2.471
-4.956
-12.332
-19.638
-26.856
-33.97
-40.962
-47.817
-54.519
-61.053
-67.406
-73.564
-79.517
-85.255
-90.767
-96.048
-101.091
-105.894
-110.455
-114.773
-118.849
-122.687
-126.291
-129.665
-132.818
-135.758
-138.494
-141.037
-143.399
-145.594
-147.634
-149.534
-151.308
-152.971
-154.538
-156.022
-157.439
-158.801
-160.123
-161.416
-162.695
-163.972
-165.258
-166.566
-167.906
-169.287
-170.719
-172.21
-173.766
-175.393
-177.093
-178.868
-180.721
-182.651
-184.657
-186.736
-188.885
-191.1
-193.374
-195.701
-198.074
-200.485
-202.923
-205.379
-207.846
-210.312
-212.77
-215.21
-217.624
-220.005
-222.346
-224.641
-226.884
-229.069
-231.189
-233.239
-235.216
-237.114
-238.932
-240.668
-242.321
-243.896
-245.4
-246.84
-248.225
-249.562
-250.864
-252.139
-253.4
-254.654
-255.908
-257.171
-258.454
-259.768
-261.126
-262.535
-264.006
-265.547
-267.171
-268.883
-270.691
-272.6
-274.608
-276.73
-278.976
-281.365
-283.923
-286.667
-289.606
-292.755
-296.123
-299.711
-303.511
-307.49
-311.595
-315.782
-320.004
-324.21
-328.347
-332.337
-336.099
-339.566
-342.671
-345.371
-347.627
-349.403
-350.674
-351.435
-351.723
-351.632
-351.309
-350.912
-350.613
-350.561
-350.981
-352.191
-354.385
-357.633
-361.795
-366.456
-371.27
-376.014
-380.329
-383.755
-385.997
-386.941
-387.137
-387.876
-390.227
-394.973
-402.696
-413.657
-428.077
-445.839
-465.323
-483.496
-497.086
-502.734
-497.743
-479.885
-446.21
-394.062
-322.453
-233.69
-133.589
-28.618
74.96
174.955
275.046
375.782
474.367
562.013
615.35
612.856
542.61
399.639
203.295
-13.241
-219.144
-380.366
-479.249
-518.82
-509.415
-471.9
-424.225
-376.087
-334.53
-301.234
-279.473
-269.328
-264.962
-262.885
-257.856
-249.127
-243.389
-243.201
-248.969
-259.447
-269.537
-276.742
-281.166
-282.414
-280.247
-274.89
-266.596
-256.227
-245.483
-235.294
-225.787
-217.299
-210.182
-204.578
-200.564
-197.801
-195.47
-193.06
-190.414
-187.394
-184
-180.217
-175.942
-171.212
-166.178
-160.946
-155.58
-150.116
-144.527
-138.817
-133.046
-127.285
-121.629
-116.181
-111.007
-106.159
-101.678
-97.592
-93.926
-90.692
-87.884
-85.481
-83.463
-81.816
-80.532
-79.6
-78.999
-78.695
-78.648
-78.813
-79.154
-79.636
-80.227
-80.889
-81.588
-82.289
-82.964
-83.586
-84.129
-84.558
-84.84
-84.941
-84.832
-84.483
-83.868
-82.958
-81.731
-80.163
-78.237
-75.938
-73.254
-70.173
-66.687
-62.79
-58.48
-53.756
-48.621
-43.077
-37.13
-30.787
-24.06
-16.959
-9.496
-1.687
6.454
14.911
23.668
32.705
42.006
51.553
61.326
71.308
81.478
91.819
102.312
112.939
123.682
134.524
145.449
156.443
167.492
178.585
189.712
200.863
212.031
223.208
234.39
245.571
256.746
267.911
279.062
290.194
301.305
312.39
323.447
334.471
345.458
356.404
367.306
378.157
388.952
399.685
410.35
420.94
431.448
441.868
452.192
462.412
472.52
482.507
492.365
502.084
511.651
521.056
530.286
539.326
548.165
556.787
565.18
573.33
581.224
588.852
596.203
603.267
610.037
616.505
622.664
628.511
634.042
639.257
644.153
648.734
653.002
656.962
660.62
663.982
667.057
669.852
672.377
674.641
676.654
678.427
679.971
681.298
682.423
683.361
684.127
684.738
685.21
685.56
685.805
685.96
686.036
686.041
685.983
685.87
685.706
685.494
685.237
684.936
684.594
684.217
683.812
683.376
682.906
682.397
681.843
681.24
680.582
679.862
679.07
678.2
677.25
676.227
675.13
673.95
672.661
671.227
669.617
667.811
665.794
663.55
661.069
658.356
655.44
652.377
649.227
646.04
642.849
639.681
636.577
633.59
630.795
628.272
626.078
624.248
622.793
621.701
620.933
620.42
620.048
619.63
618.945
617.78
615.949
613.299
609.701
604.953
598.724
590.811
581.228
570.171
558.077
545.407
532.55
520.129
509.104
500.194
493.61
489.039
485.541
481.932
477.021
469.418
457.519
441.875
425.52
411.466
402.129
395.235
385.986
375.679
373.124
396.145
461.765
572.588
717.779
874.627
1023.191
1159.6
1285.982
1405.77
1514.241
1587.245
1599.154
1535.117
1391.154
1186.795
954.992
724.288
524.233
373.492
272.02
215.123
188.792
174.619
165.488
159.333
158.512
169.643
193.073
224.436
258.49
290.118
317.931
342.582
364.615
383.977
399.124
409.405
415.402
416.95
413.771
405.97
393.67
378.376
362.934
348.969
337.077
327.885
321.52
317.987
317.358
318.695
320.271
321.064
320.654
318.923
316.177
312.6
308.21
303.357
298.63
294.389
290.791
287.795
285.16
282.736
280.474
278.301
276.117
273.838
271.38
268.689
265.772
262.635
259.27
255.676
251.846
247.78
243.502
239.053
