ecg_data_columns
33.25
32.619
32.006
31.411
30.834
30.275
29.735
29.212
28.707
28.22
27.747
27.289
26.843
26.406
25.975
25.548
25.119
24.685
24.243
23.788
23.317
22.825
22.31
21.767
21.193
20.584
19.937
19.249
18.517
17.738
16.908
16.027
15.093
14.103
13.058
11.954
10.793
9.573
8.296
6.962
5.572
4.126
2.626
1.075
-0.523
-2.164
-3.843
-5.556
-7.296
-9.056
-10.829
-12.608
-14.384
-16.151
-17.9
-19.622
-21.307
-22.948
-24.538
-26.069
-27.532
-28.919
-30.225
-31.445
-32.573
-33.605
-34.537
-35.364
-36.088
-36.709
-37.231
-37.656
-37.987
-38.229
-38.388
-38.47
-38.48
-38.421
-38.296
-38.111
-37.874
-37.597
-37.294
-36.975
-36.652
-36.338
-36.048
-35.798
-35.595
-35.443
-35.345
-35.314
-35.37
-35.543
-35.855
-36.318
-36.944
-37.739
-38.698
-39.809
-41.047
-42.361
-43.71
-45.064
-46.402
-47.716
-48.986
-50.17
-51.219
-52.087
-52.737
-53.156
-53.319
-53.217
-52.904
-52.454
-51.987
-51.643
-51.498
-51.624
-52.13
-53.116
-54.709
-57.065
-60.251
-64.369
-69.629
-76.025
-83.417
-91.465
-99.408
-106.535
-112.4
-116.366
-117.774
-116.595
-113.09
-108.126
-103.584
-100.844
-100.61
-103.904
-111.318
-122.134
-134.948
-147.013
-153.945
-152.31
-139.256
-111.126
-65.264
-0.941
79.661
170.606
264.988
358.115
450.132
542.872
632.853
709.974
755.871
751.657
691.308
583.522
449.662
313.278
188.919
80.368
-15.873
-101.293
-173.246
-227.816
-261.223
-273.987
-270.115
-253.633
-228.928
-200.943
-174.05
-151.345
-134.54
-123.7
-117.855
-116.097
-117.418
-120.063
-122.057
-122.227
-120.111
-115.921
-110.382
-104.055
-97.374
-91.026
-85.771
-82.005
-79.828
-79.061
-79.294
-80.207
-81.54
-82.97
-84.174
-84.871
-84.856
-84.035
-82.394
-79.917
-76.593
-72.424
-67.421
-61.635
-55.141
-48.011
-40.327
-32.168
-23.629
-14.811
-5.825
3.215
12.218
21.121
29.871
38.43
46.765
54.848
62.659
70.195
77.451
84.417
91.084
97.44
103.477
109.193
114.59
119.671
124.436
128.882
133.006
136.804
140.275
143.415
146.22
148.684
150.803
152.581
154.02
155.127
155.908
156.367
156.512
156.352
155.894
155.145
154.113
152.802
151.22
149.375
147.275
144.927
142.34
139.521
136.48
133.225
129.764
126.106
122.259
118.23
114.028
109.662
105.14
100.471
95.665
90.73
85.678
80.519
75.264
69.924
64.509
59.032
53.505
47.941
42.351
36.75
31.152
25.57
20.02
14.517
9.076
3.713
-1.557
-6.718
-11.757
-16.657
-21.406
-25.988
-30.393
-34.605
-38.615
-42.411
-45.984
-49.324
-52.425
-55.281
-57.887
-60.24
-62.338
-64.182
-65.772
-67.11
-68.202
-69.05
-69.663
-70.048
-70.214
-70.172
-69.931
-69.507
-68.911
-68.159
-67.266
-66.248
-65.122
-63.904
-62.613
-61.264
-59.877
-58.468
-57.055
-55.656
-54.287
-52.965
-51.704
-50.52
-49.425
-48.432
-47.552
-46.794
-46.166
-45.676
-45.329
-45.129
-45.08
-45.185
-45.443
-45.854
-46.415
-47.124
-47.975
-48.963
-50.078
-51.312
-52.656
-54.099
-55.629
-57.235
-58.903
-60.619
-62.37
-64.141
-65.917
-67.683
-69.421
-71.118
-72.757
-74.324
-75.805
-77.185
-78.452
-79.593
-80.599
-81.459
-82.166
-82.709
-83.082
-83.279
-83.296
-83.129
-82.775
-82.233
-81.504
-80.59
-79.501
-78.243
-76.826
-75.258
-73.551
-71.719
-69.774
-67.728
-65.587
-63.361
-61.063
-58.705
-56.304
-53.877
-51.44
-49.008
-46.602
-44.237
-41.928
-39.685
-37.507
-35.401
-33.379
-31.455
-29.653
-27.996
-26.495
-25.167
-24.023
-23.056
-22.258
-21.601
-21.036
-20.532
-20.061
-19.595
-19.125
-18.62
-18.037
-17.354
-16.537
-15.545
-14.357
-12.934
-11.255
-9.38
-7.378
-5.329
-3.341
-1.455
0.277
1.737
2.839
3.445
3.41
2.712
1.229
-1.237
-4.679
-8.99
-13.817
-18.366
-21.966
-24.142
-24.217
-21.783
-16.972
-10.124
-2.448
4.144
8.241
8.532
3.78
-6.026
-19.75
-35.562
-50.053
-58.838
-58.042
-43.37
-10.533
40.919
107.958
187.307
273.787
366.044
468.256
577.686
685.917
776.712
824.851
816.168
750.317
640.685
513.799
389.281
277.178
179.51
90.755
11.07
-55.013
-103.748
-131.425
-138.926
-130.832
-111.158
-84.176
-54.903
-27.575
-5.115
10.846
20.382
24.628
24.617
21.499
17.143
13.492
11.721
12.332
15.071
19.2
24.14
29.396
34.29
38.128
40.529
41.397
40.908
39.432
37.267
34.669
31.918
29.29
27.02
25.267
24.125
23.628
23.8
24.667
26.237
28.503
31.44
35.002
39.129
43.758
48.82
54.237
59.932
65.822
71.818
77.853
83.876
89.847
95.737
101.527
107.195
112.73
118.13
123.391
128.51
133.484
138.304
142.966
147.469
151.812
155.998
160.025
163.886
167.573
171.08
174.398
177.518
180.431
183.124
185.589
187.818
189.808
191.557
193.06
194.315
195.319
196.07
196.566
196.805
196.784
196.502
195.957
195.147
194.075
192.741
191.146
189.293
187.183
184.821
182.212
179.359
176.269
172.946
169.399
165.636
161.665
157.495
153.137
148.601
143.898
139.041
134.042
128.914
123.67
118.325
112.893
107.389
101.828
96.225
90.597
84.96
79.328
73.72
68.149
62.632
57.184
51.82
46.553
41.399
36.369
31.477
26.732
22.147
17.729
13.488
9.43
5.563
1.89
-1.584
-4.856
-7.924
-10.788
-13.448
-15.907
-18.165
-20.229
-22.101
-23.788
-25.296
-26.633
-27.805
-28.822
-29.691
-30.422
-31.024
-31.506
-31.879
-32.153
-32.339
-32.447
-32.487
-32.47
-32.407
-32.306
-32.179
-32.034
-31.881
-31.728
-31.584
-31.457
-31.355
-31.284
-31.251
-31.262
-31.32
-31.429
-31.594
-31.816
-32.096
-32.436
-32.838
-33.3
-33.824
-34.409
-35.053
-35.755
-36.514
-37.327
-38.19
-39.099
-40.05
-41.037
-42.057
-43.104
-44.171
-45.252
-46.342
-47.433
-48.518
-49.59
-50.64
-51.66
-52.643
-53.581
-54.465
-55.289
-56.047
-56.733
-57.343
-57.873
-58.32
-58.68
-58.95
-59.129
-59.214
-59.206
-59.104
-58.906
-58.616
-58.236
-57.772
-57.233
-56.627
-55.961
-55.247
-54.495
-53.715
-52.918
-52.11
-51.296
-50.485
-49.687
-48.914
-48.178
-47.49
-46.861
-46.303
-45.826
-45.437
-45.142
-44.939
-44.824
-44.802
-44.875
-45.055
-45.367
-45.827
-46.442
-47.217
-48.151
-49.233
-50.449
-51.767
-53.143
-54.535
-55.906
-57.223
-58.464
-59.594
-60.579
-61.379
-61.93
-62.172
-62.077
-61.642
-60.875
-59.813
-58.48
-56.906
-55.194
-53.471
-51.865
-50.504
-49.512
-48.966
-48.997
-49.847
-51.602
-54.204
-57.423
-60.698
-63.49
-65.477
-66.139
-64.801
-61.331
-55.949
-49.407
-43.456
-39.53
-38.46
-41.533
-49.783
-62.787
-79.223
-96.582
-110.633
-117.493
-113.819
-95.354
-58.134
-2.201
68.987
151.31
238.611
330.017
430.631
537.903
643.783
731.63
774.809
759.011
684.406
565.027
429.228
297.753
180.683
79.858
-11.259
-93.413
-162.435
-214.762
-246.547
-258.546
-255.157
-240.147
-217.537
-191.972
-167.382
-146.443
-130.559
-119.602
-112.578
-108.668
-106.987
-105.948
-103.779
-99.486
-92.846
-84.252
-74.516
-64.26
-53.914
-44.146
-35.717
-29.046
-24.253
-21.195
-19.488
-18.827
-19.007
-19.738
-20.722
-21.687
-22.349
-22.541
-22.203
-21.272
-19.712
-17.506
-14.62
-11.069
-6.921
-2.234
2.922
8.474
14.367
20.526
26.861
33.279
39.676
45.976
52.137
58.124
63.912
69.489
74.838
79.961
84.879
89.604
94.145
98.505
102.683
106.682
110.513
114.188
117.714
121.098
124.339
127.438
130.396
133.209
135.874
138.383
140.725
142.894
144.886
146.697
148.324
149.765
151.014
152.07
152.928
153.587
154.04
154.284
154.311
154.117
153.699
153.052
152.173
151.058
149.704
148.111
146.276
144.199
141.88
139.318
136.515
133.472
130.193
126.68
122.938
118.971
114.787
110.392
105.796
101.008
96.038
90.898
85.601
80.161
74.593
68.913
63.138
57.285
51.373
45.421
39.45
33.479
27.529
21.62
15.772
10.006
4.339
-1.209
-6.62
-11.877
-16.964
-21.866
-26.567
-31.054
-35.316
-39.34
-43.119
-46.643
-49.905
-52.9
-55.625
-58.077
-60.255
-62.161
-63.795
-65.164
-66.272
-67.125
-67.734
-68.108
-68.257
-68.196
-67.937
-67.494
-66.884
-66.12
-65.219
-64.197
-63.07
-61.854
-60.563
-59.215
-57.824
-56.404
-54.97
-53.536
-52.115
-50.718
-49.356
-48.042
-46.783
-45.589
-44.469
-43.428
-42.475
-41.614
-40.851
-40.19
-39.632
-39.179
-38.833
-38.591
-38.452
-38.413
-38.469
-38.615
-38.847
-39.157
-39.541
-39.992
-40.502
-41.064
-41.672
-42.318
-42.996
-43.697
-44.413
-45.137
-45.862
-46.583
-47.293
-47.984
-48.65
-49.284
-49.882
-50.437
-50.943
-51.393
-51.779
-52.098
-52.343
-52.51
-52.596
-52.595
-52.508
-52.337
-52.083
-51.751
-51.344
-50.865
-50.32
-49.714
-49.049
-48.328
-47.55
-46.715
-45.826
-44.89
-43.915
-42.905
-41.865
-40.802
-39.722
-38.635
-37.546
-36.45
-35.345
-34.237
-33.138
-32.077
-31.078
-30.153
-29.315
-28.576
-27.935
-27.388
-26.912
-26.459
-25.983
-25.443
-24.811
-24.076
-23.223
-22.212
-20.997
-19.529
-17.772
-15.721
-13.371
-10.714
-7.797
-4.697
-1.542
1.494
4.275
6.675
8.563
9.837
10.366
9.977
8.546
5.893
1.802
-3.691
-10.498
-18.462
-27.022
-35.573
-43.566
-50.101
-54.352
-56.285
-55.956
-53.602
-50.728
-48.83
-48.776
-52.33
-59.45
-66.598
-72.875
-78.299
-82.993
-91.899
-101.342
-98.331
-71.422
-7.527
92.403
210.551
332.571
444.892
542.861
634.723
717.319
781.029
815.373
803.596
745.09
653.736
542.506
428.677
321.475
218.602
121.075
31.139
-47.762
-109
-149.978
-172.497
-179.329
-173.584
-158.565
-137.702
-114.749
-93.642
-76.799
-64.662
-56.92
-53.132
-52.503
-53.965
-56.082
-57.009
-55.771
-52.447
-47.413
-41.271
-34.597
-27.796
-21.461
-16.358
-12.86
-10.986
-10.59
-11.305
-12.84
-15.033
-17.628
-20.355
-22.985
-25.273
-27.075
-28.349
-29.039
-29.113
-28.559
-27.342
-25.477
-23.027
-20.05
-16.615
-12.789
-8.613
-4.15
0.526
5.335
10.185
15.012
19.778
24.452
29.013
33.446
37.734
41.875
45.893
49.797
53.596
57.295
60.889
64.38
67.779
71.092
74.325
77.48
80.553
83.54
86.438
89.24
91.936
94.514
96.958
99.256
101.399
103.378
105.183
106.807
108.239
109.471
110.498
111.31
111.9
112.259
112.378
112.251
111.871
111.233
110.331
109.161
107.719
106.001
104.005
101.729
99.172
96.333
93.216
89.821
86.156
82.225
78.037
73.602
68.931
64.036
58.934
53.639
48.168
42.541
36.775
30.892
24.912
18.858
12.751
6.614
0.469
-5.662
-11.755
-17.788
-23.741
-29.592
-35.322
-40.909
-46.335
-51.582
-56.631
-61.467
-66.075
-70.439
-74.547
-78.388
-81.953
-85.235
-88.227
-90.927
-93.333
-95.444
-97.265
-98.799
-100.053
-101.036
-101.757
-102.228
-102.462
-102.472
-102.275
-101.885
-101.319
-100.592
-99.723
-98.726
-97.62
-96.421
-95.143
-93.804
-92.418
-91.001
-89.568
-88.132
-86.707
-85.306
-83.943
-82.628
-81.373
-80.189
-79.084
-78.065
-77.14
-76.314
-75.591
-74.973
-74.459
-74.049
-73.741
-73.534
-73.423
-73.403
-73.47
-73.616
-73.838
-74.128
-74.479
-74.885
-75.339
-75.832
-76.361
-76.919
-77.502
-78.104
-78.721
-79.347
-79.98
-80.615
-81.248
-81.871
-82.479
-83.068
-83.631
-84.165
-84.661
-85.114
-85.522
-85.883
-86.198
-86.465
-86.684
-86.854
-86.979
-87.06
-87.095
-87.08
-87.01
-86.885
-86.703
-86.471
-86.191
-85.865
-85.496
-85.088
-84.65
-84.188
-83.698
-83.165
-82.568
-81.9
-81.174
-80.413
-79.635
-78.855
-78.087
-77.355
-76.694
-76.126
-75.645
-75.209
-74.773
-74.319
-73.856
-73.428
-73.076
-72.802
-72.583
-72.384
-72.183
-71.946
-71.615
-71.073
-70.19
-68.892
-67.186
-65.161
-62.897
-60.418
-57.701
-54.695
-51.383
-47.797
-43.988
-39.983
-35.826
-31.634
-27.603
-24.036
-21.214
-19.273
-18.264
-18.173
-19.009
-20.883
-23.925
-28.186
-33.742
-40.689
-48.974
-58.476
-68.795
-79.107
-88.59
-96.462
-101.891
-104.381
-103.944
-100.983
-96.693
-92.791
-90.64
-91.478
-96.328
-105.211
-117.215
-130.355
-141.048
-145.43
-140.045
-121.024
-85.389
-31.888
39.662
125.624
220.189
319.68
418.148
511.569
597.053
663.921
704.749
712.715
680.896
616.187
527.303
423.348
316.431
210.339
107.855
14.076
-67.206
-130.769
-173.832
-197.329
-203.445
-196.14
-179.245
-156.651
-133.476
-113.299
-97.909
-88.199
-83.542
-82.68
-84.701
-88.013
-90.312
-90.314
-87.513
-81.9
-74.305
-65.537
-56.114
-46.819
-38.55
-31.798
-26.799
-23.551
-21.717
-21.024
-21.282
-22.229
-23.6
-25.175
-26.733
-28.07
-29.056
-29.579
-29.542
-28.892
-27.589
-25.609
-22.956
-19.674
-15.818
-11.451
-6.637
-1.424
4.131
9.953
15.955
22.04
28.131
34.176
40.134
45.974
51.671
57.203
62.566
67.771
72.827
77.736
82.492
87.084
91.507
95.76
99.845
103.762
107.506
111.069
114.444
117.623
120.6
123.364
125.901
128.197
130.24
132.025
133.546
134.8
135.785
136.497
136.937
137.106
137.006
136.636
135.999
135.095
133.926
132.496
130.809
128.871
126.687
124.264
121.609
118.732
115.642
112.35
108.867
105.203
101.371
97.384
93.255
88.996
84.621
80.143
75.574
70.929
66.221
61.461
56.662
51.836
46.995
42.149
37.311
32.49
27.696
22.941
18.232
13.582
8.999
4.493
0.073
-4.253
-8.476
-12.589
-16.585
-20.458
-24.202
-27.813
-31.286
-34.617
-37.802
-40.84
-43.727
-46.461
-49.041
-51.465
-53.732
-55.841
-57.792
-59.584
-61.219
-62.695
-64.015
-65.179
-66.187
-67.042
-67.745
-68.298
-68.704
-68.967
-69.09
-69.078
-68.935
-68.667
-68.28
-67.78
-67.173
-66.467
-65.668
-64.784
-63.822
-62.79
-61.696
-60.55
-59.36
-58.135
-56.886
-55.622
-54.351
-53.085
-51.832
-50.601
-49.402
-48.245
-47.137
-46.087
-45.105
-44.2
-43.378
-42.647
-42.014
-41.484
-41.062
-40.752
-40.557
-40.478
-40.517
-40.672
-40.945
-41.333
-41.836
-42.449
-43.169
-43.991
-44.909
-45.917
-47.007
-48.17
-49.396
-50.677
-52.003
-53.364
-54.749
-56.148
-57.549
-58.942
-60.317
-61.662
-62.965
-64.216
-65.403
-66.518
-67.551
-68.494
-69.339
-70.082
-70.722
-71.258
-71.69
-72.021
-72.251
-72.384
-72.423
-72.371
-72.23
-72
-71.683
-71.284
-70.815
-70.284
-69.702
-69.078
-68.422
-67.745
-67.059
-66.371
-65.681
-64.992
-64.314
-63.663
-63.07
-62.565
-62.163
-61.881
-61.728
-61.698
-61.784
-61.961
-62.179
-62.392
-62.559
-62.647
-62.648
-62.54
-62.286
-61.84
-61.14
-60.142
-58.83
-57.185
-55.198
-52.924
-50.436
-47.858
-45.369
-43.087
-41.13
-39.651
-38.763
-38.614
-39.388
-41.181
-44.142
-48.504
-54.268
-61.293
-69.268
-77.471
-85.186
-91.899
-96.857
-99.302
-99.135
-96.602
-92.542
-88.725
-86.562
-86.91
-90.884
-99.171
-111.03
-124.854
-137.789
-145.495
-144.191
-130.363
-100.186
-51.053
17.748
103.535
201.702
308.157
416.944
524.604
626.847
711.249
769.386
792.789
773.056
716.89
632.156
527.238
415.373
301.107
187.841
81.655
-13.212
-90.563
-146.136
-180.084
-194.564
-193.502
-180.979
-160.843
-137.835
-116.412
-99.398
-88.128
-82.38
-80.918
-82.58
-86.06
-89.398
-90.707
-88.921
-83.729
-75.614
-65.544
-54.31
-42.614
-31.294
-21.103
-12.503
-5.676
-0.512
3.272
5.92
7.641
8.649
9.15
9.336
9.378
9.455
9.739
10.364
11.436
13.022
15.154
17.854
21.124
24.924
29.191
33.857
38.855
44.138
49.667
55.382
61.211
67.068
72.864
78.537
84.044
89.354
94.444
99.303
103.924
108.324
112.528
116.553
120.41
124.103
127.63
130.999
134.219
137.297
140.242
143.055
145.739
148.293
150.717
153.006
155.153
157.148
158.978
160.632
162.102
163.381
164.462
165.336
165.996
166.435
166.646
166.622
166.354
165.835
165.055
164.007
162.684
161.081
159.191
157.011
154.539
151.772
148.711
145.357
141.712
137.78
133.566
129.078
124.323
119.311
114.053
108.559
102.845
96.924
90.814
84.53
78.09
71.514
64.821
58.031
51.166
44.247
37.295
30.333
23.382
16.467
9.608
2.83
-3.848
-10.403
-16.815
-23.066
-29.137
-35.011
-40.675
-46.115
-51.318
-56.273
-60.973
-65.408
-69.574
-73.467
-77.082
-80.42
-83.48
-86.265
-88.777
-91.02
-93.001
-94.727
-96.204
-97.443
-98.453
-99.244
-99.829
-100.219
-100.426
-100.466
-100.351
-100.095
-99.713
-99.219
-98.627
-97.952
-97.207
-96.404
-95.556
-94.675
-93.772
-92.857
-91.941
-91.031
-90.137
-89.267
-88.426
-87.621
-86.858
-86.141
-85.474
-84.86
-84.302
-83.802
-83.362
-82.981
-82.66
-82.399
-82.199
-82.057
-81.973
-81.943
-81.967
-82.039
-82.159
-82.32
-82.519
-82.75
-83.01
-83.293
-83.596
-83.913
-84.24
-84.571
-84.904
-85.233
-85.554
-85.861
-86.15
-86.417
-86.657
-86.866
-87.039
-87.174
-87.264
-87.309
-87.304
-87.249
-87.138
-86.972
-86.745
-86.458
-86.109
-85.698
-85.224
-84.687
-84.089
-83.433
-82.726
-81.973
-81.181
-80.354
-79.502
-78.632
-77.752
-76.867
-75.979
-75.092
-74.211
-73.344
-72.498
-71.681
-70.901
-70.166
-69.486
-68.869
-68.321
-67.845
-67.435
-67.091
-66.816
-66.62
-66.52
-66.527
-66.647
-66.883
-67.238
-67.702
-68.256
-68.869
-69.489
-70.074
-70.594
-71.019
-71.329
-71.5
-71.49
-71.268
-70.8
-70.052
-69.003
-67.634
-65.944
-63.988
-61.844
-59.611
-57.409
-55.32
-53.423
-51.838
-50.662
-50.004
-49.989
-50.659
-52.098
-54.498
-57.875
-62.084
-66.842
-71.512
-75.475
-78.337
-79.456
-78.078
-74.054
-67.563
-59.249
-50.675
-43.051
-37.102
-34.16
-35.402
-40.607
-48.734
-57.722
-63.97
-64.271
-55.763
-34.223
4.655
61.079
131.551
212.212
297.437
387.885
491.047
604.753
719.688
817.103
867.113
853.499
775.244
642.39
479.495
307.672
142.249
-1.511
-115.54
-194.906
-239.415
-259.118
-263.809
-259.658
-248.711
-226.651
-192.171
-149.787
-106.011
-67.577
-37.952
-17.272
-5.143
-1.246
-4.455
-12.22
-21.125
-28.89
-34.599
-38.053
-39.161
-37.273
-32.218
-25.112
-17.771
-11.49
-6.767
-3.537
-1.586
-1.103
-2.204
-4.499
-7.239
-9.702
-11.502
-12.577
-13.014
-12.8
-11.854
-10.155
-7.775
-4.856
-1.507
2.223
6.334
10.828
15.652
20.723
25.941
31.209
36.467
41.683
46.831
51.895
56.861
61.712
66.443
71.071
75.601
80.033
84.361
88.57
92.654
96.621
100.481
104.24
107.9
111.454
114.893
118.21
121.398
124.445
127.339
130.061
132.601
134.949
137.098
139.041
140.773
142.285
143.568
144.618
145.426
145.985
146.289
146.328
146.097
145.59
144.802
143.73
142.37
140.72
138.779
136.547
134.025
131.215
128.118
124.741
121.087
117.164
112.979
108.542
103.863
98.953
93.827
88.497
82.978
77.286
71.437
65.447
59.335
53.119
46.816
40.448
34.032
27.59
21.143
14.71
8.313
1.971
-4.294
-10.465
-16.522
-22.447
-28.222
-33.833
-39.263
-44.499
-49.527
-54.337
-58.917
-63.259
-67.356
-71.202
-74.793
-78.127
-81.201
-84.018
-86.577
-88.882
-90.937
-92.747
-94.319
-95.66
-96.779
-97.685
-98.388
-98.899
-99.229
-99.39
-99.395
-99.256
-98.985
-98.594
-98.098
-97.507
-96.834
-96.092
-95.292
-94.446
-93.565
-92.659
-91.739
-90.814
-89.893
-88.984
-88.095
-87.233
-86.403
-85.612
-84.864
-84.165
-83.516
-82.921
-82.382
-81.9
-81.478
-81.116
-80.813
-80.571
-80.388
-80.264
-80.198
-80.19
-80.236
-80.336
-80.487
-80.686
-80.933
-81.224
-81.555
-81.924
-82.327
-82.76
-83.221
-83.704
-84.205
-84.717
-85.236
-85.757
-86.273
-86.78
-87.269
-87.735
-88.173
-88.577
-88.943
-89.264
-89.535
-89.749
-89.904
-89.995
-90.018
-89.967
-89.839
-89.633
-89.349
-88.99
-88.557
-88.051
-87.475
-86.833
-86.129
-85.366
-84.545
-83.663
-82.725
-81.735
-80.703
-79.638
-78.549
-77.442
-76.329
-75.223
-74.134
-73.067
-72.02
-70.995
-69.998
-69.05
-68.175
-67.396
-66.723
-66.169
-65.742
-65.44
-65.256
-65.166
-65.124
-65.09
-65.041
-64.961
-64.851
-64.695
-64.456
-64.09
-63.553
-62.814
-61.857
-60.654
-59.19
-57.507
-55.677
-53.815
-52.059
-50.482
-49.144
-48.146
-47.578
-47.56
-48.249
-49.719
-52.086
-55.58
-60.224
-65.891
-72.267
-78.602
-84.173
-88.522
-90.958
-90.728
-87.787
-82.437
-75.655
-69.506
-65.496
-64.424
-67.516
-75.647
-88.278
-104.046
-119.897
-130.953
-133.501
-124.416
-99.659
-55.962
8.281
91.579
188.038
290.313
393.548
497.319
602.722
706.165
796.05
853.562
860.511
807.748
701.826
560.962
404.625
253.038
116.157
-3.095
-98.651
-172.401
-224.926
-255.26
-268.715
-265.529
-247.102
-218.437
-183.347
-148.638
-119.621
-97.834
-83.827
-76.508
-74.034
-74.987
-77.221
-78.212
-76.695
-72.358
-65.484
-56.925
-47.466
-37.7
-28.489
-20.785
-15.044
-11.352
-9.529
-9.128
-9.814
-11.353
-13.415
-15.675
-17.844
-19.634
-20.882
-21.53
-21.51
-20.782
-19.327
-17.109
-14.145
-10.508
-6.261
-1.479
3.765
9.419
15.407
21.638
28.016
34.43
40.801
47.081
53.23
59.218
65.026
70.632
76.036
81.256
86.303
91.18
95.888
100.417
104.765
108.939
112.944
116.784
120.459
123.962
127.291
130.441
133.405
136.176
138.742
141.087
143.202
145.082
146.722
148.118
149.268
150.168
150.818
151.217
151.366
151.262
150.905
150.292
149.424
148.301
146.925
145.297
143.42
141.296
138.931
136.328
133.495
130.436
127.158
123.668
119.974
116.084
112.007
107.752
103.329
98.748
94.021
89.159
84.174
79.078
73.883
68.602
63.247
57.831
52.367
46.868
41.347
35.817
30.294
24.79
19.319
13.896
8.534
3.247
-1.953
-7.053
-12.041
-16.905
-21.634
-26.217
-30.644
-34.907
-38.995
-42.901
-46.618
-50.139
-53.459
-56.573
-59.477
-62.169
-64.646
-66.908
-68.954
-70.784
-72.402
-73.809
-75.008
-76.004
-76.803
-77.411
-77.834
-78.079
-78.157
-78.074
-77.841
-77.468
-76.966
-76.346
-75.618
-74.795
-73.89
-72.915
-71.883
-70.805
-69.695
-68.565
-67.426
-66.293
-65.174
-64.082
-63.028
-62.02
-61.071
-60.188
-59.379
-58.652
-58.012
-57.466
-57.018
-56.669
-56.423
-56.278
-56.236
-56.296
-56.455
-56.713
-57.064
-57.505
-58.03
-58.634
-59.311
-60.052
-60.849
-61.692
-62.572
-63.48
-64.406
-65.339
-66.269
-67.184
-68.074
-68.93
-69.741
-70.497
-71.186
-71.799
-72.329
-72.767
-73.108
-73.344
-73.472
-73.489
-73.398
-73.2
-72.898
-72.496
-71.997
-71.407
-70.732
-69.975
-69.139
-68.225
-67.237
-66.181
-65.067
-63.903
-62.701
-61.472
-60.228
-58.985
-57.757
-56.549
-55.364
-54.205
-53.082
-52.012
-51.023
-50.132
-49.354
-48.703
-48.188
-47.81
-47.552
-47.374
-47.217
-47.027
-46.764
-46.402
-45.926
-45.309
-44.52
-43.52
-42.282
-40.791
-39.038
-37.006
-34.689
-32.14
-29.469
-26.836
-24.431
-22.402
-20.846
-19.869
-19.559
-19.992
-21.283
-23.527
-26.755
-31.061
-36.538
-43.156
-50.856
-59.322
-67.819
-75.589
-81.849
-85.729
-86.817
-85.028
-80.147
-72.875
-64.874
-57.684
-53.368
-52.419
-52.212
-50.583
-47.477
-46.472
-53.342
-68.521
-82.588
-76.597
-33.857
49.454
164.284
288.537
405.748
515.285
617.849
717.105
805.835
856.984
850.731
775.508
634.83
458.325
276.823
118.508
3.346
-69.954
-110.568
-133.017
-150.967
-167.266
-179.763
-182.195
-170.004
-145.475
-113.811
-82.24
-56.205
-36.842
-23.427
-15.01
-10.906
-10.822
-14.538
-20.384
-26.081
-30.695
-34.024
-36.068
-37.123
-37.028
-35.192
-32.134
-29.058
-26.523
-24.832
-23.971
-23.527
-23.476
-24.099
-25.184
-26.215
-26.83
-26.705
-25.757
-24.151
-21.912
-18.968
-15.338
-11.09
-6.321
-1.158
4.335
10.143
16.225
22.516
28.93
35.378
41.804
48.168
54.446
60.62
66.676
72.61
78.427
84.13
89.717
95.185
100.521
105.716
110.77
115.691
120.492
125.186
129.779
134.276
138.68
142.994
147.213
151.323
155.302
159.123
162.774
166.255
169.569
172.73
175.722
178.501
181.023
183.228
185.097
186.661
187.919
188.85
189.44
189.626
189.436
189.043
188.382
187.193
185.248
182.228
178.147
173.511
168.505
162.965
157.17
151.636
146.963
144.132
143.164
142.909
142.761
142.578
141.829
139.999
136.288
129.243
118.774
106.298
92.679
78.446
64.212
50.214
37.099
26.178
17.635
10.531
4.26
-1.68
-7.616
-13.398
-19.201
-25.606
-32.677
-40.029
-47.375
-54.396
-60.953
-67.205
-73.165
-78.713
-83.827
-88.527
-92.844
-96.855
-100.572
-103.933
-106.905
-109.469
-111.623
-113.398
-114.814
-115.884
-116.622
-117.042
-117.16
-116.999
-116.581
-115.93
-115.072
-114.028
-112.825
-111.491
-110.056
-108.55
-106.998
-105.414
-103.817
-102.224
-100.653
-99.122
-97.649
-96.246
-94.928
-93.704
-92.585
-91.579
-90.69
-89.923
-89.277
-88.749
-88.341
-88.056
-87.896
-87.86
-87.945
-88.138
-88.435
-88.843
-89.347
-89.909
-90.502
-91.089
-91.657
-92.234
-92.814
-93.343
-93.845
-94.403
-95.078
-95.942
-96.997
-98.12
-99.269
-100.563
-101.863
-102.701
-102.977
-102.825
-102.187
-101.557
-100.024
-94.751
-86.36
-77.465
-72.368
-79.15
-97.297
-118.679
-135.208
-135.417
-118.61
-95.677
-75.034
-65.766
-69.48
-78.099
-86.656
-91.758
-92.361
-91.736
-91.381
-91.197
-91.318
-91.292
-91.005
-90.864
-90.961
-91.143
-91.315
-91.412
-91.298
-90.803
-89.819
-88.229
-86.011
-83.287
-80.094
-76.429
-72.324
-67.756
-62.758
-57.487
-52.091
-46.763
-41.779
-37.348
-33.744
-31.338
-30.363
-31.031
-33.492
-37.695
-43.688
-51.599
-61.318
-72.658
-85.271
-98.409
-111.437
-123.843
-134.777
-143.531
-149.862
-153.697
-155.55
-156.503
-157.185
-158.14
-160.322
-164.1
-168.854
-173.157
-174.635
-170.592
-158.864
-137.169
-102.498
-52.213
13.016
88.945
171.065
254.718
340.375
433.69
533.205
631.998
715.501
760.489
753.828
692.845
584.081
446.963
298.422
152.411
23.843
-79.835
-153.714
-197.644
-222.498
-238.302
-251.004
-262.567
-267.322
-261.473
-247.229
-228.941
-212.051
-199.483
-190.75
-184.566
-179.911
-176.112
-172.11
-166.448
-158.223
-147.315
-134.365
-120.331
-105.878
-91.454
-77.664
-65.248
-54.721
-46.281
-39.807
-34.96
-31.443
-29.048
-27.557
-26.705
-26.242
-25.904
-25.43
-24.666
-23.492
-21.829
-19.67
-16.992
-13.784
-10.065
-5.856
-1.222
3.711
8.919
14.468
20.372
26.639
33.186
39.771
46.295
52.867
59.299
65.06
70.055
74.42
78.105
81.731
84.19
82.317
77.01
71.114
69.64
81.719
106.268
134.293
156.637
160.313
145.239
123.54
104.536
98.513
106.667
119.871
132.704
141.246
144.558
146.363
148.205
149.977
151.773
153.006
153.557
153.909
154.181
154.275
154.19
153.936
153.479
152.785
151.797
150.419
148.623
146.443
143.887
140.949
137.631
133.932
129.861
125.437
120.672
115.574
110.153
104.428
98.416
92.141
85.625
78.894
71.975
64.894
57.682
50.368
42.983
35.558
28.125
20.717
13.365
6.101
-1.043
-8.038
-14.854
-21.463
-27.84
-33.96
-39.802
-45.346
-50.574
-55.472
-60.027
-64.229
-68.07
-71.546
-74.656
-77.398
-79.778
-81.801
-83.476
-84.813
-85.826
-86.531
-86.943
-87.083
-86.969
-86.622
-86.065
-85.32
-84.411
-83.36
-82.19
-80.926
-79.591
-78.205
-76.793
-75.374
-73.969
-72.595
-71.271
-70.013
-68.835
-67.749
-66.766
-65.895
-65.142
-64.515
-64.014
-63.643
-63.399
-63.281
-63.285
-63.404
-63.633
-63.962
-64.38
-64.878
-65.444
-66.065
-66.73
-67.424
-68.135
-68.851
-69.56
-70.25
-70.91
-71.53
-72.099
-72.607
-73.046
-73.407
-73.683
-73.867
-73.955
-73.944
-73.837
-73.635
-73.34
-72.958
-72.494
-71.955
-71.348
-70.676
-69.942
-69.15
-68.307
-67.423
-66.509
-65.575
-64.628
-63.679
-62.738
-61.815
-60.915
-60.039
-59.182
-58.346
-57.54
-56.779
-56.089
-55.489
-54.989
-54.597
-54.319
-54.155
-54.098
-54.129
-54.208
-54.304
-54.393
-54.457
-54.484
-54.448
-54.311
-54.027
-53.543
-52.812
-51.803
-50.512
-48.944
-47.132
-45.115
-42.927
-40.656
-38.404
-36.282
-34.422
-32.944
-31.94
-31.559
-32.048
-33.548
-36.055
-39.362
-42.9
-46.071
-48.456
-49.566
-48.832
-46.034
-41.359
-35.609
-30.614
-28.224
-29.686
-36.138
-48.36
-66.142
-88.341
-112.442
-133.955
-148.205
-151.387
-139.503
-109.116
-58.652
12.205
100.235
197.684
298.651
398.36
493.363
584.034
662.558
715.78
732.447
700.071
622.131
515.391
392.764
270.764
155.593
42.849
-59.913
-146.713
-210.422
-240.456
-242.539
-225.058
-195.87
-165.824
-136.591
-109.164
-85.947
-66.378
-52.46
-45.212
-42.916
-44.38
-47.377
-49.268
-49.1
-46.551
-41.617
-34.988
-27.354
-19.278
-11.563
-5.045
-0.096
3.205
4.981
5.593
5.331
4.441
3.239
2.038
1.098
0.591
0.612
1.189
2.35
4.127
6.533
9.567
13.197
17.379
22.056
27.17
32.663
38.458
44.473
50.619
56.796
62.932
68.973
74.878
80.617
86.171
91.52
96.654
101.578
106.294
110.799
115.094
119.17
123.025
126.663
130.087
133.305
136.321
139.133
141.741
144.143
146.335
148.314
150.075
151.608
152.909
153.974
154.804
155.4
155.763
155.895
155.798
155.473
154.924
154.151
153.157
151.941
150.505
148.85
146.98
144.898
142.608
140.113
137.42
134.533
131.459
128.204
124.775
121.176
117.416
113.501
109.438
105.235
100.899
96.438
91.861
87.177
82.394
77.522
72.57
67.547
62.462
57.327
52.15
46.942
41.713
36.475
31.24
26.019
20.824
15.667
10.561
5.516
0.542
-4.349
-9.149
-13.849
-18.44
-22.916
-27.269
-31.493
-35.582
-39.53
-43.335
-46.99
-50.494
-53.845
-57.039
-60.078
-62.959
-65.684
-68.252
-70.666
-72.925
-75.033
-76.992
-78.804
-80.474
-82.005
-83.404
-84.676
-85.827
-86.864
-87.794
-88.623
-89.36
-90.01
-90.581
-91.076
-91.502
-91.865
-92.168
-92.417
-92.616
-92.769
-92.879
-92.95
-92.983
-92.983
-92.949
-92.882
-92.784
-92.656
-92.499
-92.313
-92.099
-91.858
-91.589
-91.296
-90.978
-90.636
-90.269
-89.875
-89.453
-89.002
-88.52
-88.006
-87.458
-86.874
-86.256
-85.608
-84.935
-84.241
-83.529
-82.805
-82.074
-81.34
-80.607
-79.874
-79.142
-78.412
-77.69
-76.986
-76.306
-75.655
-75.039
-74.463
-73.934
-73.456
-73.029
-72.644
-72.303
-72.01
-71.779
-71.636
-71.599
-71.68
-71.889
-72.226
-72.688
-73.264
-73.923
-74.62
-75.314
-75.967
-76.553
-77.056
-77.435
-77.649
-77.656
-77.4
-76.849
-75.981
-74.772
-73.242
-71.444
-69.45
-67.363
-65.295
-63.356
-61.684
-60.428
-59.749
-59.83
-60.797
-62.801
-66.052
-70.567
-76.226
-82.759
-89.564
-96.087
-101.907
-106.418
-109.115
-110.021
-109.458
-108.265
-107.84
-109.092
-112.701
-119.579
-129.858
-142.61
-156.086
-167.277
-172.709
-169.849
-155.866
-127.391
-82.758
-21.742
52.97
134.968
220.041
305.66
389.882
473.469
549.922
607.08
634.589
620.286
563.677
477.635
374.773
270.363
173.287
81.855
-3.265
-79.785
-144.192
-190.797
-217.803
-227.215
-222.165
-206.344
-183.318
-157.076
-131.775
-110.332
-94.207
-83.495
-77.382
-75.062
-75.609
-77.385
-78.556
-78.01
-75.326
-70.723
-64.844
-58.187
-51.172
-44.433
-38.665
-34.264
-31.336
-29.728
-29.099
-29.186
-29.779
-30.628
-31.469
-32.069
-32.265
-31.971
-31.161
-29.816
-27.908
-25.425
-22.365
-18.754
-14.633
-10.055
-5.073
0.26
5.879
11.721
17.716
23.782
29.858
35.904
41.886
47.783
53.58
59.261
64.817
70.253
75.569
80.769
85.851
90.808
95.636
100.337
104.91
109.357
113.676
117.86
121.898
125.78
129.495
133.029
136.368
139.492
142.385
145.033
147.423
149.544
151.386
152.936
154.184
155.124
155.745
156.042
156.008
155.636
154.923
153.867
152.466
150.724
148.641
146.222
143.473
140.401
137.015
133.324
129.34
125.074
120.54
115.754
110.732
105.491
100.05
94.43
88.65
82.733
76.701
70.577
64.384
58.145
51.884
45.624
39.387
33.195
27.068
21.028
15.094
9.283
3.612
-1.903
-7.249
-12.412
-17.382
-22.149
-26.706
-31.046
-35.164
-39.057
-42.722
-46.159
-49.368
-52.351
-55.11
-57.649
-59.973
-62.09
-64.004
-65.726
-67.264
-68.627
-69.827
-70.874
-71.779
-72.552
-73.205
-73.748
-74.192
-74.545
-74.817
-75.017
-75.152
-75.23
-75.258
-75.243
-75.189
-75.102
-74.986
-74.845
-74.681
-74.496
-74.292
-74.069
-73.83
-73.573
-73.3
-73.011
-72.705
-72.381
-72.039
-71.677
-71.293
-70.884
-70.449
-69.983
-69.485
-68.952
-68.383
-67.775
-67.127
-66.439
-65.711
-64.944
-64.136
-63.29
-62.406
-61.484
-60.526
-59.535
-58.51
-57.457
-56.378
-55.28
-54.173
-53.063
-51.957
-50.863
-49.789
-48.742
-47.727
-46.747
-45.8
-44.888
-44.017
-43.192
-42.42
-41.706
-41.054
-40.469
-39.955
-39.515
-39.149
-38.853
-38.617
-38.441
-38.331
-38.3
-38.374
-38.569
-38.893
-39.347
-39.931
-40.636
-41.45
-42.339
-43.256
-44.156
-45.002
-45.77
-46.436
-46.967
-47.322
-47.449
-47.292
-46.806
-45.968
-44.784
-43.275
-41.484
-39.463
-37.268
-35.02
-32.873
-30.987
-29.526
-28.649
-28.467
-29.147
-30.969
-34.009
-38.167
-43.174
-48.395
-53.254
-57.455
-60.51
-61.798
-61.298
-59.295
-56.59
-54.972
-55.742
-59.468
-66.97
-78.718
-93.94
-111.252
-127.989
-139.853
-143.394
-135.774
-113.953
-75.823
-20.323
52.222
139.059
235.769
336.027
432.799
521.27
595.331
652.247
691.208
704.071
686.46
634.169
543.553
425.926
293.163
157.036
32.113
-76.976
-166.802
-233.044
-277.362
-299.491
-297.773
-275.97
-235.583
-179.861
-121.44
-68.044
-27.558
-8.598
-5.65
-13.631
-27.514
-37.654
-44.217
-49.166
-52.102
-55.074
-56.606
-54.254
-48.779
-41.848
-35.258
-30.368
-27.383
-25.823
-25.491
-26.666
-29.164
-32.278
-35.421
-38.035
-39.849
-41.01
-41.542
-41.31
-40.289
-38.498
-35.971
-32.835
-29.166
-24.957
-20.243
-15.058
-9.462
-3.555
2.573
8.838
15.177
21.549
27.923
34.269
40.56
46.773
52.887
58.901
64.808
70.594
76.244
81.736
87.055
92.199
97.166
101.952
106.548
110.94
115.113
119.057
122.757
126.203
129.379
132.27
134.863
137.152
139.13
140.796
142.145
143.174
143.881
144.266
144.329
144.071
143.495
142.6
141.392
139.874
138.054
135.939
133.538
130.86
127.915
124.714
121.27
117.594
113.698
109.597
105.303
100.829
96.19
91.4
86.472
81.42
76.259
71.001
65.661
60.252
54.786
49.278
43.74
38.184
32.624
27.071
21.539
16.039
10.585
5.187
-0.141
-5.389
-10.545
-15.599
-20.54
-25.359
-30.046
-34.593
-38.991
-43.233
-47.312
-51.221
-54.955
-58.509
-61.879
-65.061
-68.053
-70.853
-73.459
-75.869
-78.084
-80.104
-81.93
-83.564
-85.008
-86.267
-87.345
-88.246
-88.976
-89.542
-89.95
-90.208
-90.324
-90.306
-90.163
-89.906
-89.545
-89.09
-88.552
-87.944
-87.277
-86.563
-85.813
-85.037
-84.247
-83.454
-82.667
-81.895
-81.147
-80.429
-79.75
-79.118
-78.537
-78.012
-77.547
-77.145
-76.808
-76.536
-76.328
-76.184
-76.1
-76.073
-76.1
-76.176
-76.298
-76.457
-76.648
-76.863
-77.094
-77.333
-77.57
-77.795
-77.998
-78.169
-78.3
-78.381
-78.402
-78.356
-78.237
-78.041
-77.766
-77.41
-76.972
-76.451
-75.848
-75.167
-74.41
-73.575
-72.663
-71.676
-70.617
-69.498
-68.326
-67.112
-65.863
-64.59
-63.304
-62.018
-60.738
-59.467
-58.206
-56.964
-55.76
-54.626
-53.591
-52.674
-51.891
-51.257
-50.771
-50.432
-50.218
-50.081
-49.983
-49.887
-49.764
-49.611
-49.41
-49.122
-48.714
-48.126
-47.311
-46.251
-44.914
-43.283
-41.409
-39.359
-37.247
-35.241
-33.446
-31.977
-30.987
-30.581
-30.898
-32.096
-34.236
-37.472
-42.05
-47.984
-55.185
-63.355
-71.759
-79.73
-86.769
-92.093
-94.965
-95.232
-92.993
-89.152
-85.559
-83.629
-84.428
-89.148
-98.342
-111.37
-126.863
-141.898
-151.871
-152.638
-140.201
-110.106
-60.73
6.018
87.814
179.974
280.822
394.696
519.448
646.966
759.784
829.652
840.76
792.387
695.824
576.191
449.507
319.204
190.287
65.611
-46.427
-129.03
-177.414
-197.563
-197.182
-189.156
-179.664
-165.743
-148.06
-128.208
-108.264
-93.084
-84.44
-81.251
-82.25
-85.569
-89.012
-90.775
-89.829
-85.704
-78.688
-69.698
-59.548
-48.896
-38.585
-29.45
-21.96
-16.349
-12.56
-10.258
-9.169
-9.084
-9.742
-10.874
-12.251
-13.644
-14.841
-15.705
-16.124
-15.999
-15.278
-13.926
-11.914
-9.252
-5.984
-2.168
2.133
6.856
11.955
17.369
23.021
28.82
34.666
40.48
46.212
51.822
57.282
62.571
67.672
72.583
77.323
81.905
86.336
90.616
94.738
98.7
102.511
106.176
109.703
113.092
116.34
119.444
122.402
125.208
127.856
130.332
132.622
134.714
136.6
138.275
139.731
140.962
141.963
142.727
143.253
143.535
143.569
143.35
142.873
142.135
141.134
139.868
138.338
136.544
134.487
132.171
129.6
126.779
123.713
120.408
116.87
113.108
109.13
104.944
100.561
95.99
91.242
86.33
81.266
76.063
70.734
65.294
59.757
54.138
48.453
42.716
36.944
31.151
25.353
19.567
13.807
8.089
2.428
-3.162
-8.669
-14.078
-19.379
-24.56
-29.611
-34.523
-39.288
-43.897
-48.343
-52.619
-56.72
-60.639
-64.37
-67.91
-71.255
-74.399
-77.341
-80.079
-82.61
-84.934
-87.051
-88.962
-90.667
-92.17
-93.471
-94.574
-95.483
-96.201
-96.733
-97.084
-97.259
-97.264
-97.105
-96.788
-96.321
-95.71
-94.961
-94.082
-93.08
-91.961
-90.734
-89.407
-87.988
-86.487
-84.913
-83.276
-81.587
-79.858
-78.099
-76.322
-74.538
-72.758
-70.992
-69.252
-67.546
-65.884
-64.275
-62.728
-61.25
-59.851
-58.536
-57.31
-56.181
-55.151
-54.225
-53.403
-52.688
-52.08
-51.579
-51.186
-50.898
-50.715
-50.633
-50.649
-50.761
-50.964
-51.251
-51.615
-52.049
-52.544
-53.091
-53.682
-54.305
-54.95
-55.611
-56.281
-56.955
-57.63
-58.298
-58.957
-59.604
-60.234
-60.844
-61.427
-61.973
-62.474
-62.93
-63.339
-63.701
-64.018
-64.287
-64.51
-64.688
-64.823
-64.913
-64.952
-64.93
-64.847
-64.71
-64.535
-64.349
-64.176
-64.028
-63.917
-63.85
-63.828
-63.845
-63.881
-63.894
-63.854
-63.733
-63.517
-63.192
-62.733
-62.111
-61.286
-60.211
-58.843
-57.156
-55.157
-52.86
-50.311
-47.559
-44.652
-41.7
-38.841
-36.216
-33.983
-32.303
-31.281
-31.076
-31.958
-34.018
-37.205
-41.285
-45.617
-49.579
-52.791
-54.7
-54.683
-52.696
-48.995
-44.433
-41.003
-40.351
-43.448
-51.537
-65.293
-83.902
-105.836
-128.147
-145.779
-154.362
-150.508
-129.947
-89.522
-28.966
50.933
145.681
245.983
345.779
440.603
526.276
603.493
666.699
704.22
706.398
662.936
576.213
462.196
337.069
218.178
113.414
20.296
-60.935
-130.011
-185.087
-221.84
-240.726
-244.905
-236.952
-220.513
-199.219
-176.013
-154.272
-136.234
-122.178
-111.728
-104.464
-99.71
-96.682
-94.293
-91
-85.997
-79.393
-71.571
-63.115
-54.528
-46.122
-38.397
-32.025
-27.334
-24.325
-22.807
-22.393
-22.766
-23.705
-24.938
-26.162
-27.093
-27.511
-27.296
-26.411
-24.835
-22.552
-19.541
-15.791
-11.34
-6.252
-0.597
5.544
12.101
18.999
26.148
33.449
40.798
48.111
55.334
62.429
69.368
76.13
82.69
89.034
95.164
101.08
106.778
112.253
117.491
122.484
127.233
131.738
135.999
140.014
143.775
147.272
150.499
153.448
156.11
158.475
160.532
162.273
163.697
164.801
165.588
166.06
166.217
166.065
165.608
164.852
163.803
162.465
160.846
158.952
156.794
154.382
151.727
148.839
145.733
142.419
138.913
135.226
131.372
127.363
123.211
118.93
114.531
110.027
105.429
100.748
95.994
91.177
86.307
81.392
76.441
71.46
66.456
61.437
56.409
51.378
46.35
41.331
36.326
31.342
26.383
21.454
16.559
11.702
6.886
2.116
-2.607
-7.278
-11.895
-16.454
-20.953
-25.388
-29.755
-34.05
-38.271
-42.412
-46.47
-50.439
-54.316
-58.094
-61.767
-65.33
-68.777
-72.101
-75.297
-78.358
-81.28
-84.057
-86.685
-89.16
-91.477
-93.634
-95.627
-97.453
-99.109
-100.594
-101.906
-103.043
-104.006
-104.796
-105.413
-105.86
-106.139
-106.254
-106.209
-106.007
-105.656
-105.159
-104.524
-103.756
-102.864
-101.857
-100.743
-99.534
-98.237
-96.863
-95.424
-93.929
-92.387
-90.808
-89.201
-87.573
-85.934
-84.292
-82.654
-81.027
-79.418
-77.831
-76.274
-74.752
-73.268
-71.826
-70.427
-69.076
-67.773
-66.52
-65.319
-64.169
-63.07
-62.025
-61.036
-60.108
-59.241
-58.435
-57.692
-57.013
-56.399
-55.847
-55.349
-54.899
-54.494
-54.129
-53.804
-53.519
-53.273
-53.066
-52.9
-52.775
-52.689
-52.639
-52.611
-52.6
-52.605
-52.628
-52.686
-52.795
-52.959
-53.187
-53.484
-53.834
-54.22
-54.611
-54.952
-55.205
-55.342
-55.333
-55.171
-54.835
-54.299
-53.547
-52.552
-51.28
-49.71
-47.824
-45.627
-43.193
-40.608
-37.98
-35.445
-33.082
-30.98
-29.256
-27.995
-27.326
-27.369
-28.158
-29.801
-32.477
-36.203
-40.887
-46.179
-51.31
-55.556
-58.337
-58.96
-57.018
-52.546
-45.835
-38.039
-31.02
-26.429
-25.869
-30.589
-40.457
-54.423
-70.84
-86.221
-96.149
-96.346
-81.602
-49.261
-0.963
61.556
135.431
220.46
321.077
434.973
553.538
658.867
724.458
735.851
690.28
598.913
487.813
374.536
268.473
173.554
83.932
-0.811
-75.011
-134.73
-175.693
-196.954
-202.167
-195.507
-180.509
-161.179
-141.839
-125.224
-112.861
-105.387
-101.939
-101.275
-102.602
-104.537
-105.165
-103.494
-99.153
-92.231
-83.587
-74.021
-64.036
-54.329
-45.674
-38.489
-32.978
-29.133
-26.639
-25.231
-24.715
-24.843
-25.365
-26.077
-26.768
-27.241
-27.368
-27.043
-26.178
-24.727
-22.659
-19.952
-16.615
-12.692
-8.24
-3.326
1.983
7.631
13.555
19.68
25.918
32.177
38.383
44.488
50.455
56.259
61.879
67.298
72.514
77.54
82.388
87.06
91.558
95.875
100.011
103.97
107.758
111.38
114.835
118.118
121.226
124.153
126.894
129.442
131.783
133.906
135.8
137.459
138.879
140.056
140.984
141.661
142.082
142.247
142.152
141.794
141.17
140.275
139.107
137.666
135.95
133.959
131.694
129.157
126.349
123.275
119.939
116.345
112.5
108.41
104.082
99.526
94.752
89.771
84.594
79.233
73.703
68.018
62.192
56.241
50.18
44.024
37.791
31.496
25.157
18.79
12.413
6.043
-0.301
-6.603
-12.845
-19.009
-25.08
-31.041
-36.875
-42.569
-48.109
-53.479
-58.669
-63.666
-68.459
-73.038
-77.395
-81.522
-85.413
-89.062
-92.468
-95.626
-98.536
-101.198
-103.613
-105.783
-107.71
-109.4
-110.857
-112.087
-113.095
-113.89
-114.478
-114.868
-115.069
-115.091
-114.942
-114.634
-114.175
-113.578
-112.854
-112.012
-111.065
-110.025
-108.901
-107.707
-106.453
-105.15
-103.808
-102.435
-101.041
-99.635
-98.223
-96.812
-95.409
-94.019
-92.646
-91.296
-89.972
-88.676
-87.41
-86.177
-84.977
-83.81
-82.679
-81.58
-80.514
-79.48
-78.477
-77.504
-76.559
-75.64
-74.744
-73.866
-73.004
-72.156
-71.315
-70.478
-69.641
-68.802
-67.961
-67.121
-66.281
-65.442
-64.605
-63.775
-62.953
-62.14
-61.333
-60.529
-59.727
-58.929
-58.14
-57.364
-56.604
-55.864
-55.15
-54.468
-53.822
-53.213
-52.635
-52.083
-51.563
-51.085
-50.67
-50.338
-50.096
-49.956
-49.925
-49.995
-50.155
-50.377
-50.611
-50.816
-50.956
-51.002
-50.942
-50.746
-50.377
-49.803
-48.982
-47.883
-46.497
-44.799
-42.792
-40.546
-38.142
-35.704
-33.384
-31.276
-29.497
-28.196
-27.494
-27.565
-28.565
-30.548
-33.65
-38.038
-43.693
-50.526
-58.188
-65.937
-73.156
-79.372
-83.948
-86.461
-86.879
-85.309
-82.622
-80.367
-79.635
-81.307
-86.169
-94.061
-104.023
-114.643
-123.117
-125.673
-119.212
-100.819
-67.607
-18.449
45.968
124.352
212.033
300.862
385.423
460.808
523.33
576.419
618.125
639.172
630.597
577.706
475.037
335.504
179.538
36.251
-71.056
-136.635
-166.119
-176.281
-182.262
-189.193
-196.649
-198.303
-190.392
-175.828
-158.762
-143.913
-134.004
-128.411
-125.661
-124.501
-123.553
-121.284
-116.863
-109.943
-100.598
-89.573
-77.634
-65.303
-53.285
-42.396
-33.108
-25.68
-20.148
-16.241
-13.718
-12.399
-12.026
-12.313
-13.011
-13.872
-14.66
-15.231
-15.461
-15.236
-14.494
-13.19
-11.289
-8.796
-5.745
-2.18
1.848
6.281
11.07
16.157
21.466
26.912
32.399
37.855
43.235
48.505
53.645
58.638
63.475
68.159
72.712
77.148
81.475
85.695
89.803
93.798
97.685
101.47
105.157
108.742
112.22
115.579
118.813
121.909
124.852
127.623
130.201
132.567
134.706
136.606
138.254
139.639
140.747
141.57
142.098
142.325
142.242
141.841
141.115
140.06
138.672
136.952
134.899
132.516
129.808
126.782
123.446
119.812
115.892
111.701
107.254
102.568
97.664
92.562
87.284
81.852
76.29
70.623
64.877
59.076
53.247
47.415
41.605
35.842
30.148
24.547
19.06
13.706
8.505
3.474
-1.37
-6.012
-10.44
-14.642
-18.609
-22.334
-25.812
-29.039
-32.016
-34.743
-37.223
-39.461
-41.462
-43.235
-44.789
-46.134
-47.282
-48.245
-49.036
-49.672
-50.165
-50.534
-50.792
-50.957
-51.042
-51.064
-51.037
-50.973
-50.886
-50.785
-50.683
-50.587
-50.507
-50.45
-50.422
-50.427
-50.469
-50.55
-50.673
-50.837
-51.041
-51.284
-51.562
-51.872
-52.212
-52.577
-52.96
-53.357
-53.762
-54.17
-54.573
-54.965
-55.34
-55.691
-56.012
-56.296
-56.539
-56.736
-56.881
-56.972
-57.005
-56.979
-56.892
-56.744
-56.533
-56.261
-55.929
-55.541
-55.097
-54.601
-54.056
-53.465
-52.831
-52.159
-51.452
-50.714
-49.949
-49.163
-48.364
-47.561
-46.76
-45.969
-45.195
-44.446
-43.727
-43.041
-42.388
-41.766
-41.176
-40.622
-40.107
-39.633
-39.198
-38.802
-38.445
-38.13
-37.855
-37.611
-37.389
-37.185
-37.001
-36.849
-36.754
-36.729
-36.781
-36.916
-37.136
-37.439
-37.82
-38.249
-38.682
-39.075
-39.393
-39.615
-39.723
-39.677
-39.431
-38.932
-38.123
-36.974
-35.474
-33.618
-31.418
-28.921
-26.184
-23.297
-20.398
-17.64
-15.178
-13.178
-11.817
-11.246
-11.674
-13.387
-16.501
-20.961
-26.54
-32.736
-39.065
-45.216
-50.672
-54.764
-57.341
-58.576
-59.191
-60.783
-64.468
-70.777
-80.551
-94.307
-111.441
-130.763
-149.652
-163.806
-170.047
-165.779
-147.518
-112.927
-61.177
7.898
90.131
179.292
272.675
365.336
454.163
537.273
603.98
646.667
658.515
632.24
574.231
492.531
395.465
294.639
193.514
94.658
3.004
-77.674
-141.761
-185.902
-210.427
-217.064
-209.681
-192.103
-168.194
-143.099
-120.484
-102.338
-89.833
-82.579
-79.414
-79.437
-81.031
-81.869
-80.644
-76.798
-70.241
-61.712
-51.97
-41.531
-31.203
-21.925
-14.208
-8.303
-4.211
-1.61
-0.239
0.086
-0.374
-1.343
-2.598
-3.926
-5.143
-6.143
-6.826
-7.101
-6.911
-6.22
-5.003
-3.268
-1.05
1.604
4.641
8.006
11.655
15.541
19.603
23.771
27.971
32.144
36.258
40.287
44.217
48.037
51.741
55.337
58.845
62.285
65.669
69.003
72.286
75.522
78.718
81.883
85.022
88.134
91.213
94.255
97.251
100.193
103.069
105.86
108.547
111.114
113.545
115.827
117.947
119.891
121.645
123.197
124.535
125.646
126.519
127.14
127.497
127.579
127.377
126.883
126.089
124.991
123.585
121.869
119.842
117.507
114.865
111.921
108.682
105.153
101.347
97.272
92.943
88.374
83.58
78.58
73.391
68.034
62.527
56.893
51.151
45.323
39.431
33.495
27.538
21.579
15.641
9.745
3.911
-1.842
-7.493
-13.026
-18.423
-23.668
-28.747
-33.647
-38.356
-42.862
-47.157
-51.231
-55.079
-58.694
-62.072
-65.211
-68.109
-70.766
-73.186
-75.369
-77.322
-79.048
-80.553
-81.845
-82.93
-83.816
-84.511
-85.024
-85.363
-85.538
-85.559
-85.436
-85.177
-84.793
-84.294
-83.688
-82.986
-82.197
-81.331
-80.395
-79.4
-78.355
-77.27
-76.154
-75.015
-73.863
-72.707
-71.554
-70.414
-69.292
-68.197
-67.134
-66.11
-65.131
-64.202
-63.33
-62.518
-61.772
-61.096
-60.493
-59.966
-59.519
-59.153
-58.868
-58.667
-58.55
-58.517
-58.568
-58.702
-58.918
-59.213
-59.584
-60.028
-60.54
-61.114
-61.742
-62.418
-63.134
-63.881
-64.651
-65.433
-66.217
-66.994
-67.753
-68.486
-69.181
-69.828
-70.416
-70.936
-71.382
-71.743
-72.013
-72.184
-72.252
-72.215
-72.073
-71.824
-71.47
-71.01
-70.448
-69.787
-69.03
-68.178
-67.23
-66.191
-65.065
-63.862
-62.591
-61.263
-59.889
-58.483
-57.062
-55.64
-54.227
-52.829
-51.453
-50.109
-48.815
-47.599
-46.482
-45.478
-44.604
-43.87
-43.282
-42.83
-42.488
-42.208
-41.951
-41.686
-41.397
-41.078
-40.711
-40.272
-39.73
-39.056
-38.239
-37.273
-36.14
-34.825
-33.367
-31.853
-30.421
-29.234
-28.405
-27.989
-28.06
-28.716
-30.046
-32.165
-35.164
-39.029
-43.83
-49.75
-56.78
-64.758
-73.284
-81.519
-88.654
-94.153
-97.347
-97.585
-94.815
-89.324
-81.979
-74.636
-69.22
-67.012
-69.109
-76.401
-86.757
-97.407
-107.133
-111.725
-110.619
-104.177
-83.85
-44.459
19.062
110.86
218.462
328.882
432.744
522.823
603.805
678.282
738.823
768.726
749.428
671.332
540.792
384.917
230.442
96.536
-6.401
-87.173
-152.762
-205.037
-246.885
-272.226
-278.265
-268.054
-243.712
-211.619
-178.263
-147.265
-121.466
-101.738
-87.612
-78.512
-73.536
-71.374
-70.326
-68.607
-65.288
-60.199
-53.617
-46.169
-38.364
-30.664
-23.742
-18.278
-14.577
-12.634
-12.208
-12.889
-14.365
-16.372
-18.609
-20.766
-22.551
-23.769
-24.333
-24.22
-23.426
-21.938
-19.736
-16.823
-13.251
-9.083
-4.389
0.761
6.31
12.189
18.311
24.591
30.933
37.268
43.555
49.765
55.875
61.872
67.739
73.467
79.067
84.545
89.898
95.123
100.211
105.153
109.954
114.612
119.127
123.495
127.706
131.751
135.621
139.305
142.792
146.067
149.116
151.926
154.49
156.803
158.858
160.652
162.178
163.434
164.417
165.126
165.557
165.709
165.578
165.165
164.471
163.499
162.25
160.729
158.941
156.891
154.585
152.03
149.234
146.203
142.946
139.471
135.787
131.904
127.83
123.576
119.151
114.565
109.828
104.95
99.942
94.813
89.575
84.238
78.814
73.315
67.75
62.134
56.479
50.796
45.101
39.404
33.72
28.061
22.44
16.869
11.362
5.931
0.586
-4.659
-9.793
-14.806
-19.686
-24.423
-29.008
-33.432
-37.684
-41.757
-45.643
-49.335
-52.825
-56.109
-59.18
-62.034
-64.668
-67.08
-69.267
-71.23
-72.97
-74.487
-75.784
-76.865
-77.735
-78.4
-78.868
-79.145
-79.242
-79.169
-78.936
-78.554
-78.037
-77.396
-76.644
-75.795
-74.861
-73.856
-72.794
-71.689
-70.553
-69.4
-68.242
-67.093
-65.964
-64.867
-63.812
-62.809
-61.867
-60.995
-60.201
-59.489
-58.868
-58.34
-57.91
-57.579
-57.35
-57.221
-57.192
-57.26
-57.42
-57.667
-57.997
-58.402
-58.874
-59.406
-59.99
-60.616
-61.278
-61.965
-62.67
-63.383
-64.095
-64.8
-65.489
-66.153
-66.786
-67.38
-67.93
-68.43
-68.874
-69.258
-69.577
-69.828
-70.009
-70.116
-70.149
-70.105
-69.986
-69.791
-69.522
-69.182
-68.774
-68.301
-67.768
-67.182
-66.547
-65.87
-65.157
-64.415
-63.648
-62.862
-62.063
-61.255
-60.443
-59.631
-58.823
-58.026
-57.249
-56.498
-55.779
-55.097
-54.46
-53.871
-53.335
-52.852
-52.418
-52.031
-51.692
-51.401
-51.161
-50.97
-50.828
-50.732
-50.681
-50.674
-50.708
-50.772
-50.859
-50.963
-51.086
-51.238
-51.438
-51.702
-52.032
-52.427
-52.886
-53.4
-53.954
-54.52
-55.049
-55.496
-55.829
-56.012
-56.012
-55.79
-55.298
-54.485
-53.304
-51.713
-49.694
-47.27
-44.47
-41.359
-38.012
-34.493
-30.942
-27.518
-24.372
-21.704
-19.7
-18.49
-18.271
-19.288
-21.589
-25.126
-29.672
-34.643
-39.577
-44.13
-47.75
-50.037
-50.994
-50.83
-50.314
-50.777
-53.012
-57.529
-65.077
-75.66
-88.4
-101.795
-113.125
-119.021
-116.949
-104.781
-79.708
-39.671
15.528
85.053
164.849
247.775
329.875
408.54
481.819
551.832
613.171
653.727
662.755
627.759
549.822
444.473
326.939
214.756
116.587
30.158
-43.315
-103.049
-148.039
-174.206
-181.98
-175.415
-158.073
-134.873
-111.296
-90.512
-74.535
-64.771
-60.825
-61.368
-65.321
-70.943
-75.878
-78.875
-79.36
-77.019
-72.385
-66.176
-58.883
-51.328
-44.484
-38.82
-34.551
-31.719
-30.036
-29.268
-29.272
-29.76
-30.43
-31.065
-31.453
-31.486
-31.149
-30.37
-29.082
-27.253
-24.848
-21.873
-18.369
-14.359
-9.872
-4.961
0.327
5.922
11.749
17.736
23.8
29.879
35.928
41.909
47.794
53.564
59.203
64.706
70.083
75.334
80.462
85.466
90.342
95.09
99.713
104.216
108.603
112.877
117.036
121.074
124.988
128.768
132.406
135.891
139.206
142.339
145.277
148.012
150.534
152.834
154.901
156.726
158.298
159.608
160.646
161.4
161.859
162.014
161.854
161.373
160.564
159.423
157.946
156.131
153.977
151.485
148.658
145.5
142.017
138.214
134.1
129.685
124.982
120.004
114.764
109.278
103.563
97.638
91.52
85.231
78.79
72.218
65.538
58.773
51.945
45.079
38.198
31.327
24.489
17.709
11.008
4.41
-2.065
-8.397
-14.567
-20.558
-26.355
-31.944
-37.313
-42.451
-47.349
-52
-56.4
-60.543
-64.429
-68.057
-71.427
-74.542
-77.406
-80.023
-82.399
-84.542
-86.458
-88.158
-89.651
-90.948
-92.06
-92.998
-93.775
-94.403
-94.895
-95.264
-95.522
-95.682
-95.755
-95.754
-95.689
-95.57
-95.407
-95.209
-94.984
-94.738
-94.478
-94.209
-93.935
-93.659
-93.383
-93.11
-92.84
-92.574
-92.311
-92.052
-91.795
-91.538
-91.281
-91.02
-90.753
-90.478
-90.192
-89.893
-89.577
-89.242
-88.886
-88.507
-88.101
-87.669
-87.207
-86.715
-86.192
-85.637
-85.051
-84.434
-83.788
-83.113
-82.412
-81.688
-80.944
-80.184
-79.411
-78.631
-77.848
-77.068
-76.294
-75.532
-74.787
-74.063
-73.367
-72.702
-72.074
-71.486
-70.944
-70.45
-70.008
-69.621
-69.291
-69.019
-68.805
-68.65
-68.552
-68.511
-68.525
-68.59
-68.705
-68.867
-69.071
-69.314
-69.59
-69.893
-70.218
-70.558
-70.907
-71.255
-71.597
-71.923
-72.228
-72.505
-72.747
-72.948
-73.102
-73.203
-73.245
-73.224
-73.134
-72.973
-72.734
-72.416
-72.019
-71.543
-70.991
-70.37
-69.685
-68.943
-68.151
-67.319
-66.452
-65.559
-64.641
-63.704
-62.751
-61.789
-60.826
-59.87
-58.93
-58.016
-57.137
-56.3
-55.511
-54.774
-54.09
-53.457
-52.876
-52.348
-51.885
-51.508
-51.236
-51.078
-51.038
-51.112
-51.292
-51.564
-51.906
-52.278
-52.634
-52.929
-53.122
-53.185
-53.098
-52.845
-52.387
-51.668
-50.636
-49.275
-47.605
-45.655
-43.448
-40.993
-38.307
-35.474
-32.648
-29.978
-27.612
-25.68
-24.223
-23.335
-23.242
-24.009
-25.554
-27.608
-29.56
-30.881
-31.36
-30.614
-28.126
-23.862
-18.009
-11.27
-5.278
-1.235
0.223
-1.946
-8.453
-18.778
-31.791
-45.133
-54.915
-58.155
-52.234
-33.371
1.437
53.354
120.766
198.429
279.986
361.239
442.476
524.758
604.318
672.814
714.924
714.206
663.986
565.324
428.939
274.416
121.671
-9.493
-104.341
-158.581
-177.88
-176.525
-167.899
-159.171
-151.071
-138.33
-118.641
-94.816
-70.966
-52.045
-40.367
-34.905
-34.049
-36.186
-39.515
-42.401
-43.832
-43.262
-40.746
-36.884
-32.254
-27.295
-22.6
-18.85
-16.398
-15.349
-15.585
-16.745
-18.514
-20.643
-22.83
-24.765
-26.258
-27.185
-27.47
-27.12
-26.126
-24.466
-22.162
-19.243
-15.73
-11.669
-7.11
-2.104
3.274
8.937
14.804
20.783
26.805
32.826
38.806
44.719
50.551
56.286
61.924
67.469
72.92
78.273
83.525
88.671
93.709
98.645
103.478
108.213
112.852
117.392
121.827
126.151
130.354
134.425
138.35
142.113
145.698
149.094
152.288
155.271
158.031
160.556
162.836
164.86
166.616
168.093
169.279
170.16
170.725
170.962
170.863
170.419
169.622
168.467
166.949
165.067
162.819
160.207
157.233
153.902
150.219
146.193
141.833
137.15
132.16
126.877
121.319
115.506
109.46
103.202
96.757
90.151
83.408
76.555
69.62
62.631
55.615
48.601
41.619
34.696
27.863
21.145
14.571
8.166
1.956
-4.039
-9.795
-15.296
-20.524
-25.464
-30.104
-34.433
-38.445
-42.133
-45.495
-48.53
-51.241
-53.631
-55.709
-57.485
-58.969
-60.17
-61.102
-61.78
-62.22
-62.446
-62.469
-62.3
-61.973
-61.518
-60.964
-60.345
-59.666
-58.92
-58.147
-57.384
-56.596
-55.761
-54.863
-53.865
-52.817
-51.806
-50.797
-49.717
-48.774
-48.213
-47.889
-47.817
-48.038
-48.032
-49.192
-52.874
-57.126
-61.351
-61.968
-54.694
-44.251
-33.787
-27.99
-33.303
-44.011
-55.267
-63.748
-63.97
-59.844
-55.336
-51.321
-50.213
-50.604
-50.683
-50.796
-50.716
-50.559
-50.685
-50.87
-50.939
-50.967
-50.988
-50.971
-50.9
-50.818
-50.76
-50.716
-50.696
-50.658
-50.546
-50.411
-50.334
-50.276
-50.164
-50.202
-50.632
-51.31
-52.25
-53.497
-54.521
-56.739
-61.53
-66.909
-72.27
-73.97
-67.653
-58.118
-48.558
-43.735
-50.193
-62.114
-74.568
-84.17
-85.337
-82.036
-78.285
-74.968
-74.531
-75.532
-76.126
-76.65
-76.86
-76.871
-77.052
-77.159
-76.997
-76.633
-76.082
-75.326
-74.378
-73.259
-71.984
-70.59
-69.125
-67.581
-65.953
-64.262
-62.524
-60.753
-58.969
-57.19
-55.427
-53.703
-52.032
-50.417
-48.87
-47.402
-46.03
-44.781
-43.68
-42.737
-41.968
-41.385
-40.985
-40.758
-40.68
-40.698
-40.778
-40.891
-41.005
-41.112
-41.188
-41.198
-41.124
-40.937
-40.604
-40.11
-39.43
-38.55
-37.521
-36.407
-35.283
-34.258
-33.393
-32.748
-32.427
-32.498
-33.046
-34.174
-35.898
-38.312
-41.581
-45.695
-50.593
-56.015
-61.301
-65.847
-69.21
-70.712
-69.811
-66.49
-60.71
-53.144
-45.734
-39.973
-36.974
-38.391
-43.424
-50.262
-59.498
-68.942
-78.138
-87.395
-88.06
-73.4
-36.239
29.137
113.033
205.761
299.467
388.328
478.198
570.054
654.325
715.013
731.951
694.909
610.805
499.59
382.517
273.343
175.701
84.182
-4.153
-86.296
-157.592
-212.217
-247.316
-264.24
-264.557
-250.398
-226.447
-197.381
-165.982
-130.748
-86.411
-31.424
27.801
75.529
95.066
81.085
41.289
-6.013
-42.8
-61.777
-65.255
-60.969
-55.442
-50.749
-46.119
-40.191
-33.414
-26.928
-21.614
-18.288
-16.907
-17.087
-18.561
-20.637
-22.431
-23.484
-23.608
-22.794
-21.244
-19.04
-16.164
-12.695
-8.771
-4.495
0.068
4.899
10.023
15.411
20.978
26.652
32.367
38.085
43.794
49.49
55.164
60.81
66.428
72.009
77.545
83.025
88.43
93.744
98.951
104.046
109.027
113.897
118.653
123.289
127.794
132.153
136.352
140.373
144.197
147.807
151.191
154.336
157.235
159.881
162.263
164.377
166.214
167.768
169.029
169.992
170.647
170.99
171.015
170.72
170.101
169.159
167.891
166.3
164.387
162.155
159.608
156.75
153.587
150.126
146.374
142.341
138.037
133.474
128.663
123.618
118.355
112.888
107.235
101.41
95.432
89.318
83.085
76.752
70.336
63.856
57.33
50.779
44.221
37.675
31.16
24.694
18.296
11.984
5.774
-0.318
-6.276
-12.084
-17.729
-23.197
-28.474
-33.549
-38.411
-43.051
-47.459
-51.629
-55.556
-59.234
-62.66
-65.834
-68.754
-71.42
-73.834
-75.998
-77.915
-79.59
-81.028
-82.235
-83.219
-83.988
-84.549
-84.913
-85.09
-85.09
-84.924
-84.603
-84.137
-83.541
-82.825
-82.002
-81.087
-80.092
-79.031
-77.918
-76.768
-75.593
-74.407
-73.223
-72.053
-70.909
-69.802
-68.742
-67.741
-66.807
-65.95
-65.177
-64.497
-63.916
-63.44
-63.074
-62.821
-62.684
-62.666
-62.768
-62.99
-63.333
-63.796
-64.378
-65.076
-65.888
-66.81
-67.836
-68.96
-70.175
-71.473
-72.845
-74.28
-75.769
-77.298
-78.859
-80.439
-82.027
-83.611
-85.178
-86.716
-88.213
-89.656
-91.033
-92.331
-93.539
-94.645
-95.64
-96.514
-97.257
-97.862
-98.319
-98.622
-98.764
-98.739
-98.544
-98.172
-97.62
-96.888
-95.974
-94.882
-93.613
-92.172
-90.566
-88.805
-86.899
-84.863
-82.707
-80.446
-78.094
-75.667
-73.18
-70.644
-68.074
-65.483
-62.887
-60.306
-57.759
-55.264
-52.841
-50.505
-48.276
-46.172
-44.206
-42.382
-40.709
-39.196
-37.864
-36.743
-35.853
-35.204
-34.805
-34.661
-34.765
-35.104
-35.643
-36.327
-37.107
-37.945
-38.816
-39.712
-40.611
-41.475
-42.25
-42.88
-43.329
-43.588
-43.641
-43.463
-43.068
-42.53
-41.964
-41.542
-41.386
-41.545
-42.082
-43.075
-44.623
-46.87
-49.953
-53.917
-58.837
-64.827
-71.834
-79.708
-88.077
-96.22
-103.499
-109.415
-113.387
-114.989
-114.261
-111.503
-107.53
-103.677
-100.777
-99.353
-100.156
-103.368
-108.249
-113.325
-116.071
-113.53
-103.642
-84.39
-53.172
-8.118
51.603
123.464
201.312
279.882
354.606
426.323
502.065
582.12
661.898
727.886
752.116
717.388
620.884
471.757
303.314
147.1
20.093
-66.205
-119.624
-155.27
-179.934
-201.059
-218.408
-224.911
-218.911
-200.56
-173.355
-144.943
-120.085
-100.624
-86.731
-77.006
-70.767
-67.641
-66.708
-66.758
-66.109
-63.835
-60.102
-55.288
-49.742
-43.806
-37.536
-31.115
-25.433
-21.027
-17.908
-16.033
-15.102
-14.834
-15.267
-16.398
-17.792
-19.047
-19.92
-20.193
-19.887
-19.066
-17.652
-15.578
-12.88
-9.622
-5.891
-1.79
2.651
7.422
12.473
17.75
23.172
28.642
34.103
39.522
44.874
50.145
55.322
60.391
65.354
70.231
75.034
79.771
84.44
89.034
93.549
97.987
102.353
106.65
110.875
115.022
119.08
123.04
126.888
130.61
134.186
137.596
140.819
143.838
146.64
149.208
151.528
153.586
155.366
156.857
158.046
158.921
159.469
159.68
159.545
159.057
158.209
156.999
155.424
153.482
151.176
148.509
145.484
142.108
138.389
134.337
129.962
125.279
120.302
115.048
109.537
103.787
97.821
91.661
85.332
78.858
72.265
65.578
58.824
52.029
45.221
38.424
31.665
24.97
18.362
11.865
5.502
-0.707
-6.741
-12.584
-18.219
-23.63
-28.806
-33.734
-38.405
-42.811
-46.944
-50.801
-54.377
-57.672
-60.686
-63.421
-65.881
-68.071
-69.997
-71.668
-73.093
-74.282
-75.247
-76
-76.553
-76.922
-77.119
-77.159
-77.056
-76.825
-76.479
-76.031
-75.496
-74.884
-74.206
-73.475
-72.698
-71.886
-71.048
-70.19
-69.32
-68.446
-67.573
-66.707
-65.854
-65.017
-64.201
-63.41
-62.645
-61.912
-61.21
-60.543
-59.912
-59.318
-58.762
-58.245
-57.767
-57.328
-56.927
-56.566
-56.244
-55.961
-55.718
-55.515
-55.354
-55.237
-55.166
-55.145
-55.174
-55.258
-55.399
-55.599
-55.863
-56.19
-56.582
-57.04
-57.566
-58.159
-58.82
-59.547
-60.339
-61.194
-62.108
-63.08
-64.104
-65.175
-66.287
-67.434
-68.611
-69.812
-71.029
-72.254
-73.479
-74.696
-75.896
-77.072
-78.213
-79.308
-80.347
-81.321
-82.22
-83.035
-83.757
-84.377
-84.888
-85.288
-85.573
-85.741
-85.791
-85.722
-85.535
-85.234
-84.822
-84.298
-83.666
-82.93
-82.096
-81.175
-80.175
-79.109
-77.987
-76.827
-75.644
-74.456
-73.275
-72.104
-70.952
-69.831
-68.76
-67.767
-66.867
-66.069
-65.386
-64.828
-64.404
-64.113
-63.925
-63.789
-63.666
-63.526
-63.36
-63.167
-62.93
-62.617
-62.193
-61.631
-60.937
-60.127
-59.188
-58.102
-56.88
-55.584
-54.357
-53.366
-52.726
-52.498
-52.699
-53.378
-54.609
-56.473
-59.066
-62.411
-66.458
-71.25
-76.88
-83.297
-90.358
-97.577
-104.044
-108.986
-111.82
-111.933
-109.045
-103.294
-94.792
-84.465
-74.435
-66.437
-61.899
-62.397
-66.334
-71.21
-77.317
-82.027
-84.74
-85.819
-76.332
-49.943
-1.276
75.151
171.13
276.754
382.057
474.479
549.93
605.009
635.901
641.824
619.491
568.572
493.345
398.901
292.91
183.9
78.313
-17.425
-96.852
-156.536
-195.484
-214.265
-215.744
-203.943
-182.454
-155.769
-129.309
-106.566
-89.385
-78.665
-73.738
-73.356
-76.565
-81.679
-86.242
-88.871
-88.995
-86.457
-81.96
-76.207
-69.584
-62.79
-56.698
-51.743
-48.122
-45.823
-44.469
-43.779
-43.586
-43.613
-43.64
-43.498
-42.994
-42.031
-40.578
-38.587
-36.041
-32.942
-29.27
-25.041
-20.3
-15.092
-9.493
-3.578
2.598
8.962
15.448
21.984
28.477
34.86
41.087
47.118
52.929
58.503
63.814
68.856
73.639
78.167
82.451
86.498
90.304
93.876
97.223
100.359
103.297
106.048
108.618
111.012
113.236
115.295
117.193
118.931
120.505
121.914
123.162
124.251
125.185
125.966
126.594
127.071
127.397
127.573
127.597
127.465
127.174
126.717
126.093
125.296
124.322
123.165
121.821
120.285
118.552
116.619
114.48
112.132
109.571
106.797
103.808
100.605
97.189
93.564
89.734
85.703
81.478
77.066
72.476
67.717
62.8
57.736
52.539
47.223
41.804
36.299
30.725
25.101
19.446
13.782
8.127
2.502
-3.071
-8.573
-13.982
-19.279
-24.443
-29.456
-34.299
-38.957
-43.414
-47.657
-51.672
-55.452
-58.986
-62.269
-65.296
-68.062
-70.566
-72.808
-74.788
-76.509
-77.976
-79.194
-80.171
-80.916
-81.439
-81.752
-81.867
-81.798
-81.559
-81.165
-80.632
-79.975
-79.212
-78.359
-77.432
-76.45
-75.428
-74.384
-73.331
-72.285
-71.259
-70.265
-69.314
-68.414
-67.575
-66.803
-66.103
-65.481
-64.94
-64.482
-64.108
-63.819
-63.612
-63.487
-63.438
-63.463
-63.556
-63.71
-63.918
-64.175
-64.471
-64.799
-65.151
-65.516
-65.887
-66.255
-66.611
-66.946
-67.251
-67.518
-67.741
-67.912
-68.025
-68.076
-68.059
-67.971
-67.81
-67.575
-67.263
-66.876
-66.413
-65.876
-65.267
-64.589
-63.845
-63.037
-62.172
-61.253
-60.286
-59.276
-58.23
-57.153
-56.05
-54.93
-53.798
-52.663
-51.529
-50.402
-49.289
-48.195
-47.126
-46.085
-45.077
-44.105
-43.175
-42.294
-41.468
-40.703
-40.003
-39.372
-38.814
-38.333
-37.929
-37.596
-37.329
-37.126
-36.984
-36.904
-36.886
-36.925
-37.019
-37.164
-37.361
-37.608
-37.897
-38.21
-38.541
-38.887
-39.252
-39.658
-40.116
-40.629
-41.199
-41.826
-42.498
-43.207
-43.919
-44.581
-45.145
-45.566
-45.813
-45.87
-45.7
-45.256
-44.49
-43.342
-41.782
-39.796
-37.37
-34.521
-31.306
-27.795
-24.104
-20.371
-16.728
-13.34
-10.38
-8.007
-6.42
-5.768
-6.222
-8.057
-11.318
-15.872
-21.462
-27.472
-33.293
-38.571
-42.683
-44.865
-45.051
-43.441
-40.707
-38.545
-38.124
-39.987
-45.109
-54.012
-65.918
-79.503
-92.134
-99.533
-98.333
-85.612
-57.907
-13.089
49.268
128.306
220.8
321.565
425.491
526.396
616.766
690.048
740.775
765.053
761.323
729.353
670.017
586.929
486.194
374.649
259.424
146.874
42.394
-48.466
-120.963
-172.871
-204.45
-217.534
-214.74
-198.742
-172.286
-138.951
-102.793
-67.016
-33.549
-3.599
21.741
41.719
55.65
63.098
64.758
61.653
54.543
44.61
33.47
22.204
11.926
3.994
-1.199
-3.675
-3.473
-1.398
1.4
4.362
7.011
8.77
9.617
9.617
8.813
7.717
6.935
6.75
7.348
8.821
11.056
13.998
17.624
21.782
26.323
31.145
36.156
41.327
46.653
52.103
57.644
63.242
68.86
74.485
80.111
85.738
91.366
96.994
102.611
108.209
113.773
119.292
124.752
130.136
135.43
140.619
145.691
150.634
155.442
160.098
164.587
168.888
172.979
176.839
180.453
183.805
186.881
189.668
192.152
194.324
196.173
197.691
198.868
199.693
200.157
200.254
199.977
199.323
198.291
196.88
195.092
192.93
190.399
187.507
184.26
180.668
176.74
172.487
167.923
163.059
157.911
152.493
146.822
140.914
134.788
128.463
121.958
115.293
108.49
101.569
94.552
87.459
80.311
73.13
65.937
58.751
51.595
44.486
37.445
30.49
23.639
16.908
10.312
3.865
-2.419
-8.528
-14.452
-20.179
-25.702
-31.011
-36.098
-40.958
-45.582
-49.966
-54.106
-57.998
-61.64
-65.03
-68.168
-71.055
-73.692
-76.082
-78.227
-80.132
-81.799
-83.235
-84.446
-85.436
-86.214
-86.788
-87.165
-87.354
-87.364
-87.205
-86.887
-86.418
-85.81
-85.072
-84.216
-83.253
-82.194
-81.052
-79.841
-78.573
-77.264
-75.927
-74.578
-73.229
-71.896
-70.593
-69.334
-68.132
-67.001
-65.953
-65
-64.155
-63.428
-62.829
-62.368
-62.05
-61.884
-61.873
-62.022
-62.332
-62.803
-63.436
-64.229
-65.181
-66.287
-67.543
-68.942
-70.476
-72.137
-73.914
-75.794
-77.762
-79.805
-81.906
-84.048
-86.214
-88.387
-90.545
-92.671
-94.745
-96.749
-98.664
-100.471
-102.151
-103.688
-105.065
-106.27
-107.29
-108.114
-108.733
-109.141
-109.339
-109.325
-109.102
-108.672
-108.039
-107.212
-106.198
-105.006
-103.643
-102.115
-100.433
-98.611
-96.667
-94.619
-92.486
-90.291
-88.056
-85.806
-83.566
-81.351
-79.175
-77.05
-74.996
-73.041
-71.221
-69.562
-68.088
-66.819
-65.77
-64.949
-64.343
-63.92
-63.627
-63.417
-63.257
-63.13
-63.029
-62.935
-62.816
-62.634
-62.353
-61.953
-61.415
-60.711
-59.815
-58.754
-57.618
-56.543
-55.702
-55.216
-55.135
-55.526
-56.465
-58.036
-60.374
-63.583
-67.67
-72.711
-78.845
-86.048
-94.173
-102.754
-110.887
-117.721
-122.571
-124.727
-123.76
-119.737
-113.061
-104.96
-97.397
-92.023
-90.247
-93.189
-100.834
-112.061
-124.839
-135.647
-140.185
-134.412
-114.448
-77.312
-21.566
52.595
142.66
244.301
350.731
452.373
541.893
613.718
665.249
701.121
720.572
716.046
679.281
595.412
460.696
291.428
110.279
-50.815
-166.597
-234.39
-262.36
-268.462
-270.255
-272.294
-272.451
-265.066
-246.544
-219.256
-187.841
-157.174
-129.92
-106.508
-86.918
-70.715
-57.353
-46.797
-39.397
-35.297
-34.506
-36.495
-39.975
-44.03
-48.304
-52.201
-54.87
-55.783
-54.631
-51.73
-48.212
-44.791
-41.652
-39.069
-37.244
-36.216
-36.043
-36.441
-36.72
-36.489
-35.614
-34.004
-31.735
-28.871
-25.396
-21.408
-17.08
-12.516
-7.793
-2.958
2
7.043
12.116
17.188
22.221
27.195
32.113
36.971
41.776
46.55
51.303
56.04
60.766
65.473
70.157
74.818
79.445
84.034
88.579
93.072
97.512
101.891
106.196
110.411
114.516
118.486
122.304
125.952
129.411
132.665
135.695
138.486
141.022
143.29
145.274
146.959
148.326
149.362
150.053
150.388
150.357
149.952
149.165
147.991
146.43
144.479
142.142
139.42
136.321
132.85
129.019
124.838
120.321
115.484
110.342
104.914
99.22
93.282
87.122
80.764
74.232
67.552
60.748
53.847
46.876
39.86
32.825
25.798
18.804
11.868
5.015
-1.731
-8.347
-14.812
-21.104
-27.205
-33.099
-38.768
-44.201
-49.386
-54.312
-58.972
-63.359
-67.471
-71.304
-74.857
-78.132
-81.132
-83.859
-86.32
-88.522
-90.472
-92.179
-93.654
-94.906
-95.946
-96.786
-97.437
-97.912
-98.222
-98.379
-98.398
-98.289
-98.068
-97.746
-97.337
-96.852
-96.305
-95.706
-95.067
-94.398
-93.709
-93.007
-92.302
-91.602
-90.912
-90.24
-89.59
-88.968
-88.377
-87.821
-87.303
-86.825
-86.388
-85.994
-85.645
-85.343
-85.087
-84.88
-84.722
-84.615
-84.559
-84.554
-84.6
-84.695
-84.837
-85.025
-85.257
-85.53
-85.842
-86.19
-86.57
-86.98
-87.417
-87.877
-88.356
-88.849
-89.352
-89.861
-90.373
-90.881
-91.381
-91.868
-92.34
-92.793
-93.223
-93.626
-93.995
-94.327
-94.618
-94.861
-95.052
-95.186
-95.258
-95.267
-95.213
-95.1
-94.929
-94.701
-94.421
-94.092
-93.717
-93.299
-92.835
-92.323
-91.765
-91.164
-90.529
-89.866
-89.179
-88.472
-87.753
-87.028
-86.305
-85.583
-84.856
-84.124
-83.395
-82.685
-82.025
-81.437
-80.933
-80.524
-80.218
-80.011
-79.903
-79.868
-79.858
-79.837
-79.769
-79.634
-79.426
-79.112
-78.644
-77.97
-77.029
-75.785
-74.223
-72.322
-70.092
-67.581
-64.858
-62.033
-59.228
-56.549
-54.13
-52.114
-50.644
-49.909
-50.047
-51.229
-53.733
-57.613
-62.745
-68.854
-75.292
-81.417
-86.879
-91.091
-93.318
-93.521
-91.972
-89.489
-87.965
-88.716
-92.23
-99.33
-110.568
-125.215
-141.967
-158.124
-168.963
-170.872
-161.436
-137.544
-96.528
-37.212
40.586
132.907
231.049
327.839
418.807
504.665
589.937
674.911
751.558
799.427
795.632
725.359
588.966
410.676
224.141
61.502
-55.277
-126.052
-162.341
-180.891
-196.274
-211.173
-222.121
-223.422
-211.713
-190.483
-166.337
-145.23
-130.256
-121.552
-117.77
-117.212
-118.633
-120.429
-120.66
-118.295
-113.079
-105.337
-95.883
-85.425
-74.505
-63.877
-54.381
-46.494
-40.375
-35.904
-32.753
-30.654
-29.418
-28.821
-28.586
-28.481
-28.289
-27.806
-26.929
-25.582
-23.686
-21.211
-18.137
-14.452
-10.187
-5.412
-0.186
5.422
11.345
17.541
23.942
30.468
37.034
43.548
49.942
56.176
62.219
68.047
73.647
79.01
84.144
89.075
93.819
98.387
102.786
107.017
111.084
115.001
118.779
122.427
125.951
129.351
132.628
135.784
138.815
141.716
144.477
147.086
149.534
151.815
153.921
155.847
157.586
159.13
160.471
161.605
162.524
163.219
163.681
163.902
163.874
163.589
163.04
162.223
161.131
159.76
158.108
156.172
153.953
151.45
148.663
145.597
142.254
138.641
134.764
130.631
126.251
121.636
116.797
111.748
106.503
101.078
95.488
89.75
83.883
77.905
71.835
65.692
59.497
53.27
47.03
40.8
34.598
28.445
22.36
16.361
10.467
4.694
-0.941
-6.423
-11.739
-16.875
-21.82
-26.563
-31.094
-35.406
-39.491
-43.344
-46.96
-50.337
-53.471
-56.363
-59.012
-61.421
-63.592
-65.53
-67.239
-68.725
-69.996
-71.059
-71.922
-72.595
-73.087
-73.408
-73.569
-73.579
-73.451
-73.195
-72.822
-72.343
-71.77
-71.112
-70.381
-69.588
-68.742
-67.854
-66.934
-65.992
-65.038
-64.082
-63.133
-62.2
-61.291
-60.415
-59.577
-58.786
-58.045
-57.358
-56.729
-56.161
-55.655
-55.213
-54.836
-54.522
-54.27
-54.08
-53.947
-53.871
-53.845
-53.865
-53.927
-54.025
-54.154
-54.309
-54.483
-54.668
-54.859
-55.049
-55.23
-55.395
-55.534
-55.638
-55.701
-55.714
-55.67
-55.562
-55.382
-55.129
-54.8
-54.396
-53.918
-53.368
-52.749
-52.066
-51.322
-50.522
-49.668
-48.762
-47.807
-46.809
-45.778
-44.724
-43.656
-42.584
-41.516
-40.462
-39.435
-38.438
-37.473
-36.54
-35.646
-34.806
-34.051
-33.404
-32.882
-32.498
-32.263
-32.174
-32.227
-32.399
-32.648
-32.931
-33.216
-33.479
-33.713
-33.906
-34.023
-34.022
-33.844
-33.446
-32.809
-31.908
-30.729
-29.311
-27.714
-26.041
-24.442
-23.016
-21.848
-21.06
-20.745
-21.017
-22.033
-23.881
-26.707
-30.75
-36.046
-42.477
-49.746
-57.167
-64.068
-70.006
-74.285
-76.138
-75.438
-72.383
-67.852
-63.738
-61.433
-61.666
-65.496
-73.663
-85.666
-100.273
-114.62
-124.154
-125.497
-115.73
-91.137
-48.91
12.375
91.068
181.104
275.668
370.872
467.411
567.687
668.81
759.717
821.17
834.452
792.294
701.209
581.145
453.852
332.769
222.397
118.485
18.009
-75.995
-157.795
-220.464
-260.889
-280.948
-284.034
-273.047
-251.11
-221.737
-188.633
-156.477
-128.468
-105.233
-86.788
-73.225
-63.952
-58.453
-55.908
-53.793
-50.538
-46.11
-40.506
-34.088
-27.374
-20.179
-12.517
-5.61
-0.203
3.607
5.731
6.615
6.694
5.905
4.281
2.352
0.58
-0.72
-1.271
-1.131
-0.384
1.053
3.235
6.132
9.672
13.747
18.234
23.085
28.272
33.728
39.381
45.133
50.88
56.557
62.129
67.576
72.885
78.05
83.061
87.922
92.656
97.281
101.806
106.235
110.566
114.8
118.942
123.002
126.987
130.896
134.727
138.469
142.116
145.656
149.076
152.36
155.489
158.445
161.215
163.787
166.147
168.283
170.183
171.834
173.222
174.337
175.165
175.692
175.906
175.796
175.353
174.569
173.436
171.949
170.105
167.902
165.341
162.423
159.15
155.527
151.561
147.26
142.635
137.697
132.46
126.939
121.153
115.119
108.86
102.395
95.748
88.943
82.005
74.958
67.83
60.647
53.436
46.225
39.042
31.915
24.872
17.939
11.142
4.507
-1.945
-8.192
-14.212
-19.989
-25.505
-30.746
-35.699
-40.353
-44.7
-48.731
-52.443
-55.835
-58.906
-61.658
-64.096
-66.226
-68.057
-69.599
-70.863
-71.863
-72.611
-73.125
-73.42
-73.515
-73.43
-73.182
-72.794
-72.284
-71.676
-70.988
-70.241
-69.454
-68.646
-67.835
-67.038
-66.271
-65.55
-64.887
-64.296
-63.788
-63.375
-63.064
-62.863
-62.776
-62.806
-62.957
-63.229
-63.62
-64.127
-64.746
-65.473
-66.301
-67.223
-68.231
-69.316
-70.466
-71.671
-72.92
-74.199
-75.495
-76.795
-78.084
-79.351
-80.583
-81.766
-82.89
-83.941
-84.908
-85.782
-86.554
-87.215
-87.755
-88.169
-88.449
-88.593
-88.597
-88.461
-88.181
-87.76
-87.201
-86.512
-85.703
-84.78
-83.754
-82.636
-81.439
-80.176
-78.859
-77.497
-76.097
-74.671
-73.23
-71.793
-70.373
-68.987
-67.646
-66.365
-65.16
-64.044
-63.022
-62.093
-61.257
-60.521
-59.897
-59.41
-59.082
-58.923
-58.946
-59.158
-59.552
-60.115
-60.817
-61.606
-62.44
-63.284
-64.109
-64.901
-65.636
-66.277
-66.79
-67.128
-67.245
-67.113
-66.683
-65.935
-64.917
-63.692
-62.359
-61.044
-59.806
-58.721
-57.919
-57.505
-57.613
-58.385
-59.852
-62.141
-65.501
-69.971
-75.448
-81.567
-87.488
-92.455
-95.982
-97.399
-96.08
-92.018
-85.544
-77.846
-71.174
-67.375
-67.747
-73.485
-85.025
-101.421
-120.711
-139.365
-152.385
-155.02
-142.786
-111.599
-58.844
14.249
102.975
201.855
305.255
411.62
521.289
628.526
721.206
781.709
794.107
752.086
661.521
538.127
395.678
248.675
110.523
-11.98
-107.173
-171.146
-211.214
-232.464
-244.729
-253.142
-252.852
-242.97
-224.544
-200.197
-176.554
-156.854
-140.502
-127.135
-116.369
-107.512
-99.939
-92.799
-84.92
-76.336
-68.614
-62.363
-57.024
-52.435
-48.504
-45.261
-43.215
-42.108
-40.729
-38.733
-36.632
-34.705
-33.257
-32.372
-31.667
-31.083
-30.931
-31.135
-31.3
-31.132
-30.329
-28.761
-26.555
-23.754
-20.321
-16.314
-11.834
-6.981
-1.873
3.416
8.868
14.435
20.048
25.654
31.202
36.658
42.009
47.242
52.346
57.329
62.209
66.998
71.7
76.316
80.84
85.268
89.605
93.847
97.991
102.029
105.96
109.777
113.476
117.046
120.47
123.732
126.813
129.696
132.368
134.816
137.028
138.99
140.691
142.123
143.277
144.144
144.713
144.976
144.924
144.55
143.851
142.823
141.463
139.771
137.749
135.399
132.726
129.736
126.434
122.828
118.926
114.739
110.278
105.555
100.582
95.375
89.949
84.321
78.51
72.533
66.409
60.159
53.802
47.359
40.85
34.296
27.717
21.134
14.568
8.039
1.569
-4.825
-11.122
-17.304
-23.355
-29.258
-34.998
-40.562
-45.936
-51.109
-56.07
-60.81
-65.32
-69.594
-73.624
-77.406
-80.938
-84.216
-87.241
-90.013
-92.533
-94.806
-96.835
-98.625
-100.182
-101.512
-102.624
-103.526
-104.226
-104.736
-105.065
-105.225
-105.229
-105.088
-104.815
-104.423
-103.927
-103.338
-102.67
-101.937
-101.151
-100.326
-99.473
-98.603
-97.729
-96.859
-96.004
-95.172
-94.372
-93.61
-92.892
-92.222
-91.606
-91.046
-90.544
-90.101
-89.718
-89.393
-89.127
-88.917
-88.76
-88.652
-88.587
-88.563
-88.572
-88.609
-88.666
-88.734
-88.806
-88.873
-88.927
-88.959
-88.96
-88.922
-88.838
-88.705
-88.519
-88.279
-87.981
-87.625
-87.21
-86.737
-86.207
-85.617
-84.964
-84.25
-83.476
-82.648
-81.773
-80.856
-79.908
-78.937
-77.955
-76.974
-75.998
-75.029
-74.073
-73.14
-72.248
-71.424
-70.686
-70.051
-69.533
-69.142
-68.878
-68.729
-68.663
-68.625
-68.572
-68.465
-68.279
-67.998
-67.589
-67.011
-66.227
-65.202
-63.921
-62.378
-60.56
-58.463
-56.14
-53.694
-51.273
-49.065
-47.208
-45.8
-44.959
-44.81
-45.504
-47.212
-50.061
-54.082
-59.312
-65.818
-73.556
-82.356
-91.784
-101.093
-109.5
-116.366
-121.204
-123.649
-123.667
-121.448
-117.559
-113.145
-109.427
-107.436
-107.629
-109.689
-112.39
-114.016
-112.539
-105.17
-88.837
-60.469
-18.064
38.502
107.49
186.03
270.795
357.215
439.499
510.911
565.342
598.875
609.677
597.146
561.055
502.667
425.515
335.305
238.476
140.33
45.157
-42.988
-119.562
-180.682
-224.654
-252.141
-265.203
-265.852
-256.041
-238.22
-215.97
-193.229
-172.535
-154.871
-140.262
-128.48
-119.347
-112.484
-106.694
-100.301
-92.429
-82.993
-72.366
-61.182
-49.87
-38.703
-28.239
-19.209
-12.006
-6.722
-3.192
-1.02
0.088
0.335
-0.015
-0.672
-1.348
-1.766
-1.768
-1.296
-0.302
1.239
3.361
6.095
9.419
13.271
17.588
22.296
27.334
32.653
38.184
43.851
49.571
55.256
60.848
66.318
71.645
76.818
81.83
86.672
91.358
95.913
100.353
104.691
108.93
113.069
117.112
121.068
124.941
128.735
132.446
136.068
139.592
143.009
146.308
149.473
152.486
155.327
157.98
160.429
162.66
164.659
166.414
167.908
169.131
170.07
170.714
171.049
171.064
170.748
170.092
169.088
167.731
166.016
163.941
161.507
158.714
155.569
152.076
148.244
144.083
139.604
134.823
129.753
124.414
118.822
112.997
106.962
100.738
94.348
87.815
81.165
74.421
67.608
60.753
53.881
47.016
40.185
33.411
26.72
20.135
13.68
7.375
1.243
-4.7
-10.435
-15.948
-21.226
-26.257
-31.033
-35.547
-39.794
-43.772
-47.48
-50.919
-54.092
-57.005
-59.663
-62.074
-64.248
-66.193
-67.92
-69.442
-70.77
-71.917
-72.896
-73.722
-74.408
-74.968
-75.416
-75.768
-76.038
-76.24
-76.387
-76.491
-76.567
-76.624
-76.673
-76.722
-76.779
-76.849
-76.938
-77.05
-77.187
-77.35
-77.537
-77.749
-77.983
-78.234
-78.5
-78.774
-79.051
-79.324
-79.589
-79.838
-80.065
-80.263
-80.425
-80.545
-80.619
-80.639
-80.6
-80.495
-80.32
-80.07
-79.741
-79.33
-78.833
-78.249
-77.577
-76.822
-75.988
-75.079
-74.102
-73.063
-71.971
-70.835
-69.665
-68.465
-67.241
-66.001
-64.755
-63.516
-62.296
-61.106
-59.956
-58.857
-57.825
-56.871
-56.001
-55.215
-54.513
-53.904
-53.402
-53.03
-52.805
-52.735
-52.826
-53.084
-53.506
-54.082
-54.785
-55.569
-56.389
-57.212
-58.015
-58.784
-59.495
-60.102
-60.555
-60.808
-60.83
-60.606
-60.114
-59.341
-58.324
-57.129
-55.868
-54.676
-53.642
-52.844
-52.392
-52.39
-52.96
-54.26
-56.378
-59.423
-63.593
-68.903
-75.243
-82.351
-89.616
-96.437
-102.403
-106.87
-109.095
-108.913
-106.451
-102.389
-98.294
-95.272
-93.881
-95.187
-100.135
-108.531
-119.448
-130.52
-137.844
-138.54
-130.092
-108.872
-71.618
-16.407
55.377
138.17
225.885
314.848
406.681
505.175
606.925
700.982
768.201
785.726
742.848
643.076
500.977
342.272
190.746
59.456
-43.534
-119.864
-178.303
-222.485
-256.457
-281.097
-290.922
-284.871
-264.3
-232.859
-198.461
-166.944
-140.867
-121.161
-107.122
-97.754
-92.366
-89.751
-88.04
-85.418
-81.013
-74.758
-67.001
-58.374
-49.37
-40.45
-32.34
-25.751
-20.982
-18.014
-16.594
-16.32
-16.894
-18.063
-19.524
-20.96
-22.071
-22.661
-22.641
-21.987
-20.695
-18.75
-16.13
-12.841
-8.937
-4.481
0.456
5.804
11.511
17.507
23.705
30.016
36.341
42.608
48.777
54.815
60.705
66.432
71.984
77.358
82.571
87.633
92.549
97.321
101.942
106.411
110.734
114.916
118.96
122.866
126.626
130.235
133.687
136.97
140.075
142.986
145.686
148.162
150.402
152.396
154.138
155.617
156.826
157.759
158.411
158.778
158.853
158.631
158.107
157.278
156.143
154.699
152.947
150.889
148.527
145.865
142.91
139.668
136.147
132.355
128.301
123.995
119.45
114.677
109.689
104.502
99.13
93.59
87.902
82.082
76.151
70.128
64.034
57.887
51.71
45.521
39.341
33.19
27.088
21.054
15.109
9.272
3.56
-2.01
-7.421
-12.66
-17.714
-22.571
-27.222
-31.658
-35.87
-39.852
-43.599
-47.106
-50.371
-53.39
-56.165
-58.696
-60.986
-63.04
-64.862
-66.459
-67.838
-69.008
-69.979
-70.76
-71.363
-71.8
-72.082
-72.223
-72.237
-72.139
-71.943
-71.663
-71.313
-70.905
-70.453
-69.968
-69.461
-68.94
-68.416
-67.895
-67.389
-66.907
-66.457
-66.037
-65.65
-65.298
-64.985
-64.718
-64.498
-64.308
-64.153
-64.061
-64.051
-64.143
-64.337
-64.587
-64.878
-65.25
-65.668
-66.029
-66.251
-66.244
-65.986
-65.589
-65.089
-64.351
-63.488
-62.961
-62.891
-63.13
-63.736
-64.236
-65.457
-70.317
-78.377
-86.883
-91.593
-84.246
-64.84
-41.798
-23.341
-21.163
-36.704
-58.775
-78.683
-87.255
-82.349
-72.302
-62.405
-56.064
-54.563
-54.54
-54.358
-54.181
-53.87
-53.928
-54.523
-55.189
-55.771
-56.318
-56.755
-57.003
-57.036
-56.85
-56.487
-56.014
-55.432
-54.67
-53.679
-52.456
-51.034
-49.432
-47.643
-45.683
-43.602
-41.535
-39.707
-38.297
-37.436
-37.208
-37.634
-38.77
-40.711
-43.542
-47.342
-52.13
-57.819
-64.379
-71.881
-80.205
-89.049
-97.818
-105.556
-111.398
-114.75
-115.182
-112.385
-106.474
-97.881
-87.493
-76.868
-67.595
-61.002
-57.738
-57.545
-59.154
-60.65
-59.76
-53.577
-38.806
-11.909
29.664
86.533
155.913
232.537
311.587
388.676
463.701
538.601
609.669
669.688
704.049
693.77
632.698
525.318
387.292
245.773
118.131
13.286
-65.154
-125.057
-170.247
-202.033
-223.499
-231.247
-225.212
-208.379
-182.776
-155.115
-130.418
-110.075
-95.416
-85.811
-79.732
-76.647
-75.301
-73.466
-70.037
-64.706
-57.434
-48.933
-39.908
-30.695
-21.941
-14.535
-8.905
-5.19
-3.323
-2.887
-3.56
-5.144
-7.323
-9.788
-12.267
-14.466
-16.212
-17.449
-18.108
-18.151
-17.555
-16.277
-14.326
-11.761
-8.632
-5.006
-0.943
3.511
8.286
13.302
18.473
23.701
28.919
34.085
39.168
44.146
49.005
53.73
58.322
62.8
67.175
71.451
75.63
79.704
83.671
87.538
91.31
94.987
98.57
102.052
105.426
108.687
111.824
114.827
117.679
120.364
122.868
125.179
127.289
129.188
130.868
132.319
133.535
134.509
135.235
135.704
135.91
135.846
135.504
134.881
133.973
132.777
131.291
129.515
127.45
125.098
122.462
119.547
116.357
112.898
109.177
105.204
100.987
96.536
91.864
86.984
81.908
76.653
71.234
65.666
59.967
54.153
48.242
42.253
36.202
30.11
23.995
17.876
11.774
5.709
-0.3
-6.234
-12.073
-17.799
-23.396
-28.847
-34.135
-39.247
-44.169
-48.888
-53.393
-57.674
-61.722
-65.529
-69.089
-72.397
-75.451
-78.248
-80.789
-83.074
-85.106
-86.887
-88.422
-89.717
-90.779
-91.615
-92.235
-92.649
-92.866
-92.901
-92.765
-92.472
-92.036
-91.472
-90.794
-90.017
-89.158
-88.23
-87.249
-86.23
-85.187
-84.134
-83.085
-82.051
-81.045
-80.076
-79.155
-78.292
-77.493
-76.766
-76.117
-75.55
-75.069
-74.679
-74.379
-74.171
-74.054
-74.024
-74.08
-74.219
-74.434
-74.719
-75.067
-75.47
-75.921
-76.41
-76.928
-77.465
-78.009
-78.55
-79.079
-79.586
-80.06
-80.492
-80.873
-81.2
-81.468
-81.674
-81.814
-81.885
-81.886
-81.816
-81.673
-81.454
-81.156
-80.775
-80.313
-79.774
-79.165
-78.492
-77.763
-76.986
-76.171
-75.332
-74.475
-73.6
-72.709
-71.809
-70.917
-70.063
-69.267
-68.545
-67.908
-67.368
-66.927
-66.576
-66.288
-66.011
-65.7
-65.321
-64.854
-64.297
-63.636
-62.837
-61.863
-60.675
-59.251
-57.59
-55.687
-53.519
-51.117
-48.572
-46.018
-43.647
-41.602
-39.953
-38.791
-38.221
-38.361
-39.375
-41.393
-44.443
-48.62
-54.056
-60.717
-68.481
-76.931
-85.272
-92.808
-98.95
-103.021
-104.565
-103.531
-100.158
-95.433
-90.891
-87.646
-86.681
-88.88
-94.291
-102.117
-110.641
-116.782
-117.131
-108.639
-87.921
-51.95
0.937
69.588
149.47
234.962
321.901
410.58
503.017
596.314
680.429
736.972
747.513
704.829
615.426
498.836
376.328
261.443
158.749
65.181
-20.905
-96.928
-158.385
-200.498
-222.47
-227.027
-217.822
-199.061
-174.843
-148.958
-125.086
-105.576
-91.104
-81.469
-75.884
-73.348
-72.725
-72.492
-71.007
-67.437
-61.812
-54.546
-46.317
-37.717
-29.167
-21.264
-14.683
-9.748
-6.479
-4.688
-4.011
-4.155
-4.935
-6.117
-7.454
-8.718
-9.671
-10.171
-10.17
-9.626
-8.522
-6.837
-4.538
-1.638
1.801
5.714
10.032
14.691
19.653
24.861
30.242
35.721
41.209
46.647
52
57.244
62.361
67.335
72.15
76.806
81.323
85.714
89.984
94.135
98.16
102.057
105.834
109.495
113.039
116.465
119.763
122.927
125.949
128.82
131.527
134.056
136.388
138.512
140.415
142.089
143.523
144.709
145.639
146.306
146.704
146.831
146.679
146.245
145.524
144.516
143.219
141.633
139.76
137.601
135.16
132.442
129.453
126.202
122.696
118.945
114.96
110.753
106.339
101.732
96.946
91.998
86.904
81.683
76.351
70.928
65.432
59.881
54.294
48.689
43.085
37.499
31.946
26.443
21.006
15.65
10.387
5.233
0.2
-4.701
-9.459
-14.063
-18.504
-22.774
-26.868
-30.779
-34.504
-38.038
-41.381
-44.532
-47.489
-50.255
-52.831
-55.219
-57.423
-59.447
-61.296
-62.976
-64.492
-65.851
-67.06
-68.127
-69.058
-69.861
-70.543
-71.109
-71.569
-71.927
-72.192
-72.37
-72.468
-72.495
-72.457
-72.362
-72.216
-72.028
-71.802
-71.546
-71.266
-70.967
-70.654
-70.332
-70.007
-69.684
-69.368
-69.063
-68.773
-68.504
-68.257
-68.038
-67.848
-67.69
-67.565
-67.475
-67.422
-67.406
-67.43
-67.494
-67.599
-67.745
-67.932
-68.158
-68.421
-68.719
-69.048
-69.404
-69.783
-70.18
-70.591
-71.009
-71.431
-71.85
-72.262
-72.662
-73.045
-73.403
-73.731
-74.023
-74.276
-74.484
-74.642
-74.745
-74.791
-74.779
-74.712
-74.591
-74.417
-74.192
-73.92
-73.603
-73.247
-72.851
-72.413
-71.934
-71.417
-70.867
-70.293
-69.703
-69.102
-68.499
-67.905
-67.327
-66.774
-66.247
-65.74
-65.256
-64.806
-64.402
-64.072
-63.835
-63.701
-63.68
-63.776
-63.983
-64.29
-64.668
-65.066
-65.45
-65.791
-66.066
-66.269
-66.372
-66.334
-66.127
-65.703
-65.023
-64.06
-62.797
-61.243
-59.452
-57.493
-55.453
-53.435
-51.527
-49.841
-48.497
-47.597
-47.28
-47.635
-48.767
-50.898
-54.085
-58.228
-63.069
-68.009
-72.409
-75.868
-77.803
-77.479
-74.799
-70.002
-63.855
-58.161
-54.337
-53.174
-55.848
-63.227
-74.811
-89.358
-104.237
-115.036
-118.25
-110.853
-89.061
-49.897
8.215
83.899
171.806
265.304
358.177
449.251
542.01
634.269
720.792
787.201
807.78
770.64
673.925
528.931
369.125
217.866
89.617
-6.981
-82.783
-143.551
-189.801
-224.851
-242.969
-242.156
-226.608
-198.996
-166.393
-135.783
-109.79
-90.205
-77.332
-70.014
-67.196
-67.667
-69.318
-69.884
-68.26
-64.159
-57.784
-49.89
-41.154
-32.077
-23.488
-16.291
-10.901
-7.419
-5.699
-5.328
-6.009
-7.538
-9.604
-11.899
-14.152
-16.082
-17.53
-18.44
-18.745
-18.401
-17.385
-15.657
-13.226
-10.155
-6.497
-2.317
2.321
7.376
12.778
18.448
24.296
30.222
36.152
42.042
47.858
53.573
59.171
64.633
69.958
75.167
80.27
85.272
90.175
94.971
99.657
104.241
108.725
113.113
117.401
121.583
125.649
129.593
133.403
137.067
140.566
143.882
146.998
149.901
152.579
155.022
157.219
159.159
160.833
162.234
163.354
164.184
164.715
164.941
164.853
164.446
163.715
162.655
161.262
159.534
157.47
155.07
152.335
149.268
145.874
142.158
138.126
133.789
129.157
124.241
119.054
113.611
107.929
102.026
95.92
89.631
83.18
76.589
69.88
63.075
56.199
49.272
42.319
35.362
28.426
21.534
14.708
7.972
1.347
-5.143
-11.478
-17.638
-23.603
-29.356
-34.879
-40.159
-45.18
-49.932
-54.403
-58.585
-62.473
-66.061
-69.347
-72.33
-75.011
-77.394
-79.483
-81.285
-82.808
-84.062
-85.059
-85.81
-86.33
-86.631
-86.728
-86.636
-86.371
-85.948
-85.384
-84.694
-83.894
-83.002
-82.033
-81.005
-79.933
-78.833
-77.72
-76.608
-75.512
-74.445
-73.416
-72.438
-71.517
-70.661
-69.879
-69.174
-68.553
-68.018
-67.57
-67.21
-66.939
-66.755
-66.654
-66.632
-66.683
-66.804
-66.989
-67.233
-67.531
-67.875
-68.262
-68.687
-69.143
-69.625
-70.126
-70.638
-71.154
-71.667
-72.169
-72.652
-73.107
-73.526
-73.905
-74.24
-74.532
-74.777
-74.972
-75.118
-75.216
-75.267
-75.269
-75.218
-75.106
-74.933
-74.703
-74.42
-74.089
-73.716
-73.303
-72.861
-72.401
-71.928
-71.44
-70.923
-70.355
-69.727
-69.052
-68.347
-67.641
-66.957
-66.312
-65.736
-65.269
-64.927
-64.706
-64.577
-64.482
-64.397
-64.328
-64.298
-64.347
-64.487
-64.694
-64.927
-65.132
-65.233
-65.145
-64.751
-63.902
-62.517
-60.572
-58.098
-55.188
-51.895
-48.219
-44.159
-39.703
-34.853
-29.682
-24.304
-18.852
-13.52
-8.526
-4.089
-0.501
1.991
3.232
3.116
1.623
-1.209
-5.467
-11.326
-18.771
-27.648
-37.538
-47.624
-57.181
-65.682
-72.371
-76.457
-77.653
-76.021
-72.448
-68.86
-66.822
-67.362
-71.587
-80.058
-92.142
-106.411
-119.95
-128.359
-127.565
-113.863
-83.537
-33.664
34.84
117.741
210.28
305.623
402.589
506.014
612.268
714.494
798.18
836.246
815.921
733.819
593.791
421.635
239.621
69.445
-62.291
-148.829
-190.722
-196.983
-190.997
-184.742
-181.897
-181.774
-174.799
-158.686
-137.972
-116.582
-99.768
-89.519
-84.15
-82.209
-82.402
-83.077
-82.748
-80.638
-76.423
-70.342
-63.172
-55.526
-47.803
-40.632
-34.723
-30.426
-27.85
-26.833
-26.953
-27.888
-29.373
-31.084
-32.694
-33.914
-34.537
-34.453
-33.649
-32.133
-29.89
-26.895
-23.115
-18.555
-13.279
-7.478
-1.37
4.934
11.286
17.544
23.604
29.216
34.209
38.814
43.428
48.202
53.333
58.887
64.186
68.852
73.073
76.032
78.314
82.971
89.834
97.787
103.199
95.346
72.683
45.211
29.719
50.648
114.661
202.301
280.731
314.871
292.4
229.214
154.274
92.117
48.836
18.225
-8.166
-29.584
-34.421
-16.034
26.013
81.481
131.168
165.876
178.96
169.785
148.378
116.76
82.235
55.645
38.061
36.094
48.861
64.726
78.418
82.57
74.432
61.571
48.3
37.737
31.77
27.382
22.889
18.41
13.8
9.634
6.146
2.855
-0.509
-3.988
-7.621
-11.428
-15.39
-19.464
-23.607
-27.75
-31.867
-35.997
-40.155
-44.324
-48.488
-52.63
-56.738
-60.808
-64.827
-68.768
-72.611
-76.343
-79.961
-83.467
-86.858
-90.128
-93.268
-96.269
-99.127
-101.837
-104.398
-106.806
-109.056
-111.142
-113.062
-114.817
-116.407
-117.839
-119.105
-120.198
-121.136
-121.934
-122.606
-123.173
-123.628
-123.949
-124.166
-124.311
-124.339
-124.218
-123.926
-123.421
-122.755
-122.022
-121.185
-120.169
-119.204
-118.556
-118.08
-117.8
-117.772
-117.447
-118.334
-121.901
-126.066
-130.201
-130.476
-122.302
-110.763
-99.248
-92.798
-98.342
-109.749
-121.823
-130.999
-131.392
-127.201
-122.68
-118.768
-118.054
-119.019
-119.713
-120.495
-121.106
-121.665
-122.551
-123.498
-124.288
-124.978
-125.572
-126.033
-126.358
-126.547
-126.601
-126.547
-126.419
-126.193
-125.847
-125.384
-124.803
-124.106
-123.299
-122.38
-121.347
-120.206
-118.964
-117.626
-116.192
-114.668
-113.06
-111.374
-109.619
-107.801
-105.928
-104.007
-102.047
-100.053
-98.034
-95.995
-93.939
-91.882
-89.84
-87.837
-85.907
-84.077
-82.366
-80.801
-79.4
-78.176
-77.134
-76.253
-75.496
-74.825
-74.199
-73.582
-72.933
-72.19
-71.3
-70.194
-68.807
-67.112
-65.076
-62.67
-59.875
-56.671
-53.09
-49.262
-45.362
-41.599
-38.202
-35.332
-33.239
-32.285
-32.655
-34.426
-37.435
-41.169
-45.235
-49.433
-53.411
-56.749
-59.24
-60.82
-62.176
-64.786
-69.786
-77.95
-89.747
-105.282
-124.556
-147.015
-170.481
-191.387
-206.003
-210.773
-203.142
-180.907
-141.298
-82.442
-4.559
88.663
190.558
294.671
397.053
498.078
599.372
697.799
783.461
838.524
845.108
795.944
697.076
568.089
431.002
300.355
181.59
72.177
-29.127
-119.202
-192.74
-244.334
-273.113
-281.969
-274.471
-254.533
-225.77
-191.439
-155.292
-120.087
-87.039
-56.733
-29.747
-6.952
10.816
23.114
30.377
33.056
31.363
25.681
16.908
6.681
-3.35
-11.806
-17.989
-21.633
-22.587
-20.94
-17.234
-12.527
-7.731
-3.532
-0.241
2.222
3.957
5.116
6.032
7.199
8.966
11.535
14.957
19.084
23.799
29.016
34.611
40.442
46.396
52.386
58.348
64.275
70.155
75.957
81.663
87.246
92.693
98.009
103.202
108.275
113.23
118.063
122.765
127.332
131.759
136.042
140.177
144.159
147.984
151.649
155.155
158.501
161.686
164.702
167.539
170.19
172.649
174.914
176.982
178.852
180.519
181.983
183.241
184.293
185.133
185.756
186.155
186.324
186.258
185.952
185.4
184.6
183.548
182.242
180.679
178.859
176.78
174.442
171.845
168.989
165.876
162.507
158.886
155.016
150.901
146.547
141.961
137.151
132.125
126.894
121.468
115.859
110.081
104.148
98.075
91.879
85.578
79.191
72.739
66.241
59.721
53.198
46.695
40.235
33.837
27.524
21.317
15.235
9.298
3.526
-2.062
-7.451
-12.622
-17.56
-22.252
-26.684
-30.846
-34.728
-38.322
-41.622
-44.622
-47.32
-49.715
-51.808
-53.6
-55.097
-56.303
-57.226
-57.876
-58.264
-58.402
-58.303
-57.982
-57.454
-56.736
-55.845
-54.798
-53.611
-52.304
-50.894
-49.4
-47.84
-46.233
-44.596
-42.947
-41.303
-39.681
-38.096
-36.561
-35.091
-33.696
-32.387
-31.175
-30.068
-29.073
-28.194
-27.437
-26.803
-26.294
-25.909
-25.645
-25.498
-25.462
-25.532
-25.702
-25.963
-26.307
-26.724
-27.205
-27.742
-28.324
-28.942
-29.583
-30.236
-30.89
-31.537
-32.164
-32.764
-33.326
-33.842
-34.307
-34.718
-35.07
-35.361
-35.586
-35.746
-35.839
-35.867
-35.825
-35.714
-35.535
-35.289
-34.985
-34.629
-34.228
-33.791
-33.331
-32.859
-32.39
-31.932
-31.485
-31.054
-30.646
-30.275
-29.966
-29.734
-29.585
-29.528
-29.573
-29.722
-29.973
-30.299
-30.644
-30.966
-31.225
-31.397
-31.48
-31.451
-31.278
-30.929
-30.363
-29.572
-28.569
-27.346
-25.889
-24.216
-22.384
-20.531
-18.847
-17.478
-16.539
-16.112
-16.264
-17.089
-18.689
-21.168
-24.615
-29.053
-34.519
-41.074
-48.72
-57.365
-66.636
-75.793
-84.055
-90.705
-95.014
-96.603
-95.275
-90.734
-83.769
-76.027
-68.697
-63.543
-61.012
-58.633
-56.242
-54.899
-55.77
-63.306
-74.044
-76.096
-57.873
-5.983
79.202
181.911
288.278
383.743
466.733
549.971
634.49
716.166
780.406
797.349
754.838
651.889
494.781
312.722
129.431
-36.209
-161.378
-242.59
-281.656
-281.483
-256.199
-214.686
-166.229
-125.668
-101.391
-98.484
-114.368
-135.08
-148.974
-150.217
-139.542
-125.664
-114.713
-107.49
-102.646
-96.709
-88.169
-78.105
-67.628
-57.707
-48.934
-41.545
-35.722
-31.595
-29.045
-27.734
-27.4
-27.884
-28.997
-30.501
-32.13
-33.573
-34.611
-35.152
-35.108
-34.412
-33.024
-30.905
-28.063
-24.556
-20.444
-15.786
-10.642
-5.063
0.884
7.113
13.524
20.008
26.48
32.886
39.181
45.335
51.327
57.138
62.769
68.235
73.55
78.718
83.736
88.598
93.301
97.848
102.245
106.496
110.6
114.553
118.348
121.983
125.449
128.739
131.84
134.738
137.421
139.883
142.118
144.122
145.89
147.416
148.697
149.729
150.51
151.034
151.297
151.292
151.016
150.466
149.637
148.529
147.138
145.464
143.508
141.272
138.758
135.97
132.913
129.592
126.014
122.187
118.119
113.818
109.293
104.555
99.612
94.479
89.165
83.682
78.043
72.261
66.349
60.322
54.193
47.976
41.685
35.34
28.957
22.558
16.16
9.78
3.435
-2.857
-9.076
-15.204
-21.223
-27.122
-32.883
-38.493
-43.932
-49.179
-54.219
-59.043
-63.644
-68.018
-72.154
-76.03
-79.635
-82.962
-86.007
-88.769
-91.241
-93.409
-95.267
-96.818
-98.073
-99.064
-99.802
-100.294
-100.54
-100.533
-100.298
-99.891
-99.361
-98.763
-98.113
-97.369
-96.537
-95.649
-94.736
-93.887
-93.073
-92.105
-91.024
-90.04
-89.368
-89.363
-90.023
-90.866
-91.723
-92.705
-93.586
-94.059
-93.502
-90.755
-85.62
-78.91
-71.237
-63.235
-55.611
-48.714
-43.598
-42.144
-44.997
-51.744
-61.583
-72.928
-84.637
-96.351
-106.943
-114.683
-118.651
-118.368
-114.331
-108.337
-101.48
-94.103
-86.956
-80.828
-76.395
-74.525
-75.111
-76.967
-79.415
-82.127
-84.788
-87.376
-89.641
-91.011
-91.44
-91.365
-91.069
-90.773
-90.521
-90.092
-89.439
-88.671
-87.788
-86.707
-85.321
-83.522
-81.33
-78.911
-76.409
-73.92
-71.501
-69.153
-66.893
-64.782
-62.888
-61.262
-59.913
-58.839
-58.045
-57.605
-57.619
-58.121
-59.066
-60.314
-61.721
-63.2
-64.683
-66.121
-67.453
-68.602
-69.52
-70.248
-70.854
-71.409
-71.976
-72.51
-72.975
-73.422
-73.938
-74.717
-75.939
-77.669
-80.051
-83.292
-87.411
-92.326
-97.691
-102.755
-106.901
-109.647
-110.296
-108.445
-104.202
-97.915
-90.753
-84.438
-80.174
-79.151
-82.618
-90.71
-102.487
-116.279
-128.897
-136.399
-135.372
-121.902
-91.758
-44.157
18.209
92.32
173.202
259.987
357.697
464.853
574.479
671.583
731.841
738.774
686.714
582.171
444.139
293.903
151.512
29.628
-65.516
-134.593
-185.786
-224.287
-254.83
-278.196
-288.637
-284.529
-266.246
-236.579
-202.71
-169.425
-139.199
-114.059
-93.926
-78.099
-66.653
-59.094
-54.508
-52.54
-52.344
-52.441
-52.272
-51.859
-51.038
-49.947
-48.599
-46.428
-43.552
-40.84
-38.643
-37.056
-36.085
-35.363
-34.782
-34.601
-34.676
-34.529
-33.857
-32.402
-30.073
-27.041
-23.351
-18.939
-13.857
-8.209
-2.109
4.29
10.893
17.667
24.549
31.467
38.354
45.141
51.786
58.267
64.568
70.68
76.597
82.319
87.845
93.17
98.29
103.201
107.898
112.381
116.649
120.701
124.534
128.154
131.558
134.748
137.72
140.468
142.984
145.264
147.305
149.105
150.667
151.991
153.078
153.933
154.557
154.956
155.13
155.081
154.81
154.316
153.6
152.665
151.514
150.147
148.568
146.78
144.785
142.587
140.189
137.594
134.804
131.821
128.648
125.288
121.744
118.019
114.115
110.036
105.788
101.373
96.799
92.069
87.191
82.171
77.017
71.737
66.341
60.84
55.244
49.566
43.82
38.02
32.18
26.314
20.439
14.569
8.72
2.907
-2.854
-8.549
-14.162
-19.677
-25.079
-30.353
-35.485
-40.46
-45.265
-49.887
-54.314
-58.535
-62.538
-66.316
-69.86
-73.163
-76.218
-79.022
-81.571
-83.864
-85.902
-87.685
-89.217
-90.503
-91.549
-92.363
-92.953
-93.33
-93.504
-93.486
-93.288
-92.923
-92.404
-91.746
-90.963
-90.069
-89.08
-88.011
-86.878
-85.697
-84.482
-83.249
-82.012
-80.785
-79.582
-78.415
-77.295
-76.235
-75.243
-74.33
-73.504
-72.772
-72.138
-71.606
-71.178
-70.857
-70.641
-70.527
-70.512
-70.592
-70.761
-71.014
-71.343
-71.74
-72.195
-72.7
-73.244
-73.818
-74.41
-75.008
-75.6
-76.174
-76.721
-77.231
-77.691
-78.094
-78.429
-78.693
-78.88
-78.985
-79.005
-78.936
-78.775
-78.523
-78.178
-77.736
-77.198
-76.563
-75.834
-75.018
-74.123
-73.155
-72.127
-71.049
-69.936
-68.804
-67.662
-66.513
-65.364
-64.226
-63.117
-62.067
-61.094
-60.209
-59.423
-58.75
-58.191
-57.746
-57.385
-57.054
-56.71
-56.319
-55.862
-55.341
-54.739
-54.029
-53.182
-52.159
-50.956
-49.591
-48.059
-46.349
-44.482
-42.523
-40.616
-38.957
-37.695
-36.931
-36.72
-37.124
-38.255
-40.223
-43.141
-47.077
-51.995
-57.914
-64.946
-73.046
-81.979
-91.235
-99.928
-107.256
-112.677
-115.583
-115.498
-112.383
-106.497
-98.86
-91.183
-84.816
-80.887
-80.397
-83.401
-89.025
-95.712
-100.52
-99.828
-90.292
-68.187
-30.318
24.642
94.892
175.77
261.946
348.673
435.733
524.608
610.683
683.85
726.649
720.63
660.608
555.489
425.382
292.86
171.644
65.158
-29.193
-112.276
-181.315
-232.273
-261.61
-270.189
-262.109
-241.189
-211.838
-178.841
-146.177
-117.42
-94.793
-78.338
-67.252
-60.988
-58.574
-58.699
-60.042
-60.797
-59.868
-57.399
-53.776
-49.325
-44.482
-39.388
-34.187
-29.746
-26.595
-24.676
-23.915
-24
-24.575
-25.663
-27.256
-28.89
-30.224
-31.069
-31.226
-30.761
-29.759
-28.135
-25.846
-22.953
-19.516
-15.63
-11.402
-6.853
-2.017
3.044
8.269
13.561
18.843
24.08
29.241
34.313
39.289
44.152
48.897
53.537
58.08
62.532
66.898
71.167
75.337
79.409
83.384
87.272
91.072
94.781
98.394
101.903
105.3
108.572
111.708
114.688
117.498
120.126
122.559
124.787
126.8
128.586
130.135
131.436
132.48
133.257
133.755
133.964
133.877
133.488
132.79
131.781
130.459
128.822
126.872
124.613
122.047
119.181
116.02
112.571
108.844
104.848
100.596
96.099
91.372
86.428
81.285
75.96
70.47
64.835
59.074
53.208
47.258
41.246
35.193
29.121
23.053
17.012
11.018
5.094
-0.74
-6.464
-12.06
-17.51
-22.801
-27.916
-32.845
-37.576
-42.101
-46.411
-50.5
-54.363
-57.996
-61.397
-64.565
-67.5
-70.202
-72.674
-74.919
-76.941
-78.747
-80.341
-81.732
-82.928
-83.938
-84.771
-85.439
-85.952
-86.322
-86.561
-86.681
-86.694
-86.612
-86.446
-86.208
-85.907
-85.554
-85.157
-84.725
-84.264
-83.781
-83.282
-82.773
-82.256
-81.737
-81.22
-80.708
-80.205
-79.713
-79.236
-78.776
-78.335
-77.915
-77.519
-77.146
-76.796
-76.469
-76.166
-75.886
-75.626
-75.385
-75.161
-74.952
-74.754
-74.565
-74.383
-74.203
-74.021
-73.836
-73.645
-73.446
-73.236
-73.014
-72.778
-72.526
-72.259
-71.976
-71.675
-71.353
-71.008
-70.639
-70.244
-69.819
-69.363
-68.873
-68.351
-67.798
-67.22
-66.617
-65.993
-65.351
-64.696
-64.032
-63.359
-62.677
-61.984
-61.281
-60.575
-59.871
-59.173
-58.485
-57.81
-57.151
-56.516
-55.909
-55.325
-54.759
-54.211
-53.689
-53.209
-52.8
-52.48
-52.259
-52.145
-52.143
-52.255
-52.476
-52.778
-53.115
-53.445
-53.731
-53.958
-54.104
-54.131
-53.989
-53.621
-52.969
-52
-50.703
-49.066
-47.095
-44.826
-42.315
-39.652
-36.971
-34.416
-32.122
-30.236
-28.919
-28.317
-28.622
-30.1
-32.846
-36.791
-41.727
-47.194
-52.723
-57.995
-62.473
-65.469
-66.84
-66.774
-65.931
-65.79
-67.454
-71.488
-78.798
-90.006
-104.526
-121.137
-137.369
-149.167
-153.263
-146.884
-126.733
-90.497
-37.407
32.058
115.113
206.903
302.76
397.233
483.646
555.962
608.874
638.524
643.415
623.417
579.308
514.142
432.985
341.655
246.589
153.422
66.772
-8.518
-68.516
-111.636
-138.215
-150.097
-150.181
-141.164
-125.79
-107.822
-90.894
-77.202
-67.712
-62.262
-59.994
-60.195
-62.128
-64.417
-65.482
-64.453
-61.112
-55.774
-49.158
-41.825
-34.155
-26.716
-20.158
-14.85
-10.939
-8.353
-6.785
-5.997
-5.828
-6.052
-6.46
-6.862
-7.049
-6.892
-6.32
-5.257
-3.668
-1.537
1.169
4.447
8.264
12.586
17.347
22.481
27.939
33.657
39.57
45.604
51.664
57.678
63.597
69.381
75.006
80.453
85.698
90.734
95.568
100.207
104.655
108.916
112.984
116.858
120.544
124.049
127.383
130.552
133.554
136.389
139.058
141.558
143.888
146.043
148.011
149.789
151.371
152.758
153.947
154.939
155.73
156.319
156.705
156.888
156.866
156.636
156.195
155.54
154.67
153.585
152.282
150.762
149.024
147.068
144.896
142.508
139.906
137.092
134.069
130.84
127.409
123.781
119.962
115.959
111.777
107.424
102.909
98.241
93.43
88.484
83.417
78.238
72.962
67.601
62.17
56.683
51.156
45.604
40.043
34.491
28.964
23.479
18.051
12.697
7.434
2.276
-2.762
-7.665
-12.419
-17.013
-21.435
-25.674
-29.72
-33.566
-37.204
-40.626
-43.828
-46.806
-49.555
-52.074
-54.361
-56.417
-58.244
-59.844
-61.223
-62.388
-63.343
-64.093
-64.648
-65.015
-65.206
-65.238
-65.117
-64.847
-64.456
-63.968
-63.406
-62.798
-62.145
-61.434
-60.7
-59.974
-59.221
-58.414
-57.533
-56.544
-55.493
-54.465
-53.425
-52.305
-51.31
-50.681
-50.281
-50.127
-50.266
-50.191
-51.271
-54.837
-58.982
-63.129
-63.778
-56.74
-46.639
-36.553
-31.069
-36.491
-47.225
-58.529
-67.148
-67.713
-64.045
-60.017
-56.481
-55.793
-56.57
-57.035
-57.515
-57.775
-57.926
-58.318
-58.709
-58.905
-58.963
-58.892
-58.668
-58.293
-57.778
-57.13
-56.384
-55.584
-54.715
-53.764
-52.743
-51.655
-50.511
-49.326
-48.107
-46.861
-45.603
-44.351
-43.118
-41.92
-40.767
-39.664
-38.619
-37.641
-36.74
-35.927
-35.212
-34.603
-34.108
-33.735
-33.49
-33.377
-33.391
-33.522
-33.764
-34.116
-34.582
-35.178
-35.919
-36.809
-37.853
-39.045
-40.372
-41.815
-43.343
-44.905
-46.459
-47.961
-49.375
-50.686
-51.864
-52.886
-53.713
-54.274
-54.52
-54.431
-54.001
-53.26
-52.249
-50.976
-49.5
-47.945
-46.364
-44.778
-43.224
-41.723
-40.383
-39.379
-38.88
-38.999
-39.959
-42.181
-45.48
-49.07
-52.328
-54.275
-55.214
-57.322
-59.911
-60.692
-56.415
-41.232
-17.725
4.56
16.156
5.153
-28.039
-71.113
-112.791
-138.919
-142.889
-127.701
-93.314
-42.058
22.268
100.31
190.316
291.098
404.023
523.144
634.685
718.686
754.898
733.805
661.037
556.355
440.548
327.13
222.436
124.181
31.48
-50.539
-116.737
-162.723
-186.918
-192.407
-184.052
-165.962
-142.595
-119.052
-98.663
-83.365
-74.217
-70.522
-70.86
-74.212
-78.885
-82.581
-84.053
-82.716
-78.462
-72.027
-64.182
-55.465
-46.685
-38.763
-32.196
-27.227
-23.875
-21.841
-20.878
-20.812
-21.385
-22.318
-23.393
-24.409
-25.185
-25.627
-25.648
-25.16
-24.121
-22.502
-20.285
-17.485
-14.142
-10.303
-6.024
-1.368
3.614
8.858
14.289
19.825
25.374
30.864
36.247
41.486
46.553
51.43
56.1
60.563
64.833
68.922
72.836
76.577
80.143
83.537
86.769
89.848
92.784
95.585
98.251
100.784
103.186
105.457
107.594
109.59
111.436
113.127
114.658
116.028
117.235
118.277
119.149
119.851
120.38
120.734
120.91
120.902
120.708
120.321
119.739
118.957
117.974
116.785
115.388
113.78
111.96
109.928
107.683
105.224
102.552
99.669
96.577
93.28
89.782
86.087
82.202
78.135
73.893
69.487
64.926
60.22
55.383
50.426
45.363
40.207
34.973
29.675
24.328
18.948
13.551
8.152
2.768
-2.585
-7.893
-13.139
-18.309
-23.39
-28.366
-33.227
-37.96
-42.552
-46.995
-51.278
-55.391
-59.329
-63.082
-66.646
-70.016
-73.187
-76.157
-78.926
-81.492
-83.857
-86.021
-87.988
-89.76
-91.343
-92.739
-93.956
-94.998
-95.871
-96.583
-97.14
-97.549
-97.818
-97.955
-97.967
-97.863
-97.649
-97.333
-96.923
-96.426
-95.849
-95.202
-94.49
-93.722
-92.906
-92.049
-91.159
-90.244
-89.309
-88.364
-87.413
-86.464
-85.522
-84.593
-83.684
-82.799
-81.945
-81.126
-80.349
-79.618
-78.937
-78.312
-77.747
-77.245
-76.811
-76.447
-76.155
-75.94
-75.803
-75.748
-75.774
-75.884
-76.077
-76.353
-76.71
-77.148
-77.661
-78.246
-78.897
-79.61
-80.38
-81.199
-82.059
-82.954
-83.874
-84.813
-85.761
-86.708
-87.646
-88.562
-89.448
-90.294
-91.09
-91.827
-92.496
-93.087
-93.596
-94.018
-94.349
-94.584
-94.721
-94.756
-94.689
-94.519
-94.242
-93.856
-93.358
-92.747
-92.03
-91.21
-90.295
-89.293
-88.211
-87.06
-85.852
-84.594
-83.287
-81.935
-80.542
-79.124
-77.708
-76.315
-74.963
-73.67
-72.453
-71.321
-70.273
-69.291
-68.336
-67.373
-66.373
-65.317
-64.205
-63.024
-61.75
-60.351
-58.788
-57.039
-55.095
-52.937
-50.536
-47.914
-45.146
-42.357
-39.72
-37.359
-35.342
-33.763
-32.724
-32.325
-32.711
-34.007
-36.259
-39.62
-44.299
-50.275
-57.484
-65.62
-73.875
-81.477
-87.791
-91.954
-93.298
-91.92
-87.96
-82.062
-76.31
-72.668
-72.498
-77.623
-87.624
-98.674
-109.492
-119.313
-126.893
-135.261
-139.65
-127.151
-88.783
-16.132
89.316
211.501
339.61
467.9
590.046
704.608
799.022
849.561
843.248
776.262
660.593
524.647
388.081
261.651
149.386
45.964
-47.965
-126.829
-187.138
-225.325
-241.769
-240.827
-226.888
-204.45
-178.717
-154.283
-133.947
-119.119
-109.893
-105.245
-103.968
-104.839
-105.92
-105.176
-101.587
-94.904
-85.565
-74.493
-62.474
-50.149
-38.334
-27.884
-19.275
-12.664
-7.933
-4.741
-2.804
-1.915
-1.834
-2.274
-2.986
-3.736
-4.288
-4.518
-4.328
-3.626
-2.371
-0.535
1.907
4.927
8.458
12.438
16.799
21.478
26.432
31.597
36.888
42.22
47.493
52.638
57.617
62.398
66.961
71.295
75.395
79.273
82.961
86.482
89.849
93.074
96.158
99.11
101.947
104.683
107.331
109.899
112.389
114.804
117.147
119.417
121.609
123.712
125.714
127.606
129.381
131.032
132.552
133.933
135.167
136.246
137.162
137.908
138.472
138.845
139.016
138.974
138.712
138.219
137.489
136.514
135.288
133.807
132.066
130.064
127.798
125.266
122.471
119.414
116.097
112.526
108.706
104.645
100.351
95.835
91.108
86.184
81.075
75.797
70.365
64.796
59.108
53.318
47.446
41.51
35.533
29.533
23.532
17.552
11.612
5.732
-0.067
-5.768
-11.351
-16.8
-22.099
-27.233
-32.187
-36.948
-41.504
-45.846
-49.962
-53.846
-57.491
-60.892
-64.046
-66.948
-69.6
-72
-74.149
-76.05
-77.706
-79.123
-80.304
-81.258
-81.992
-82.516
-82.838
-82.971
-82.924
-82.709
-82.34
-81.829
-81.189
-80.432
-79.573
-78.625
-77.601
-76.514
-75.379
-74.207
-73.011
-71.805
-70.599
-69.405
-68.233
-67.095
-65.999
-64.956
-63.976
-63.066
-62.235
-61.489
-60.837
-60.282
-59.832
-59.488
-59.255
-59.133
-59.125
-59.23
-59.448
-59.778
-60.216
-60.76
-61.405
-62.145
-62.975
-63.887
-64.872
-65.923
-67.029
-68.181
-69.37
-70.585
-71.815
-73.05
-74.277
-75.486
-76.666
-77.805
-78.89
-79.909
-80.854
-81.712
-82.476
-83.135
-83.681
-84.111
-84.419
-84.603
-84.66
-84.59
-84.392
-84.067
-83.618
-83.045
-82.349
-81.535
-80.605
-79.569
-78.434
-77.211
-75.913
-74.554
-73.147
-71.708
-70.249
-68.776
-67.297
-65.822
-64.367
-62.961
-61.628
-60.383
-59.243
-58.225
-57.338
-56.583
-55.94
-55.363
-54.814
-54.255
-53.664
-53.037
-52.362
-51.616
-50.768
-49.772
-48.603
-47.258
-45.728
-43.992
-42.055
-39.962
-37.838
-35.866
-34.22
-33.021
-32.335
-32.236
-32.824
-34.216
-36.561
-39.977
-44.491
-50.186
-57.206
-65.528
-74.983
-85.094
-94.933
-103.623
-110.459
-114.646
-115.66
-113.508
-108.475
-101.71
-95.14
-90.302
-88.638
-91.534
-99.056
-110.074
-122.819
-133.869
-138.701
-133.234
-112.985
-73.378
-13.742
62.893
153.224
251.519
354.361
464.741
581.056
697.24
803.266
876.189
894.555
846.638
728.322
557.608
364.266
177.855
28.47
-72.861
-130.663
-156.417
-171.137
-186.146
-201.977
-215.683
-218.412
-207.257
-187.272
-164.5
-145.092
-131.846
-123.866
-119.658
-118.056
-118.05
-118.133
-116.565
-112.282
-105.047
-95.437
-84.372
-72.498
-60.357
-48.686
-38.283
-29.671
-23.03
-18.201
-14.839
-12.649
-11.413
-10.912
-10.87
-11.037
-11.172
-11.038
-10.506
-9.486
-7.893
-5.688
-2.843
0.666
4.808
9.509
14.699
20.3
26.239
32.469
38.917
45.49
52.094
58.622
64.996
71.172
77.112
82.791
88.19
93.298
98.124
102.696
107.033
111.145
115.041
118.719
122.188
125.463
128.556
131.479
134.239
136.839
139.284
141.577
143.719
145.708
147.537
149.198
150.687
152.001
153.14
154.102
154.888
155.494
155.921
156.169
156.237
156.121
155.818
155.324
154.636
153.75
152.663
151.372
149.875
148.169
146.253
144.126
141.788
139.238
136.477
133.507
130.33
126.948
123.366
119.588
115.62
111.468
107.14
102.645
97.989
93.185
88.241
83.168
77.98
72.686
67.302
61.838
56.31
50.732
45.119
39.487
33.851
28.227
22.631
17.079
11.586
6.167
0.838
-4.388
-9.497
-14.475
-19.311
-23.993
-28.509
-32.849
-37.005
-40.968
-44.73
-48.285
-51.627
-54.753
-57.66
-60.344
-62.806
-65.046
-67.064
-68.862
-70.445
-71.816
-72.979
-73.942
-74.711
-75.292
-75.696
-75.931
-76.008
-75.936
-75.727
-75.392
-74.943
-74.392
-73.751
-73.031
-72.246
-71.407
-70.528
-69.619
-68.696
-67.769
-66.851
-65.953
-65.087
-64.264
-63.493
-62.783
-62.14
-61.573
-61.086
-60.686
-60.375
-60.157
-60.033
-60.005
-60.072
-60.235
-60.489
-60.832
-61.259
-61.764
-62.341
-62.984
-63.684
-64.435
-65.227
-66.053
-66.904
-67.771
-68.645
-69.516
-70.372
-71.204
-72.003
-72.757
-73.456
-74.091
-74.655
-75.144
-75.554
-75.886
-76.137
-76.306
-76.398
-76.413
-76.354
-76.222
-76.014
-75.729
-75.373
-74.951
-74.473
-73.946
-73.377
-72.777
-72.156
-71.524
-70.887
-70.249
-69.605
-68.961
-68.326
-67.714
-67.154
-66.67
-66.275
-65.985
-65.804
-65.729
-65.751
-65.846
-65.966
-66.078
-66.147
-66.145
-66.058
-65.859
-65.513
-64.993
-64.248
-63.238
-61.931
-60.317
-58.415
-56.279
-53.973
-51.576
-49.184
-46.904
-44.878
-43.251
-42.151
-41.724
-42.049
-43.244
-45.536
-48.962
-53.402
-58.553
-63.735
-68.301
-71.86
-73.827
-73.528
-70.917
-66.223
-60.227
-54.765
-51.274
-50.624
-54.003
-62.065
-74.028
-88.454
-102.72
-112.407
-113.663
-103.153
-76.984
-32.624
30.083
109.926
203.67
305.375
408.848
507.356
592.305
656.269
694.317
702.406
680.287
630.641
554.771
457.44
342.905
215.16
86.396
-33.233
-132.352
-199.678
-238.924
-255.233
-254.709
-246.971
-231.748
-209.084
-183.049
-155.593
-131.019
-112.551
-99.706
-91.714
-87.53
-85.702
-84.663
-82.791
-79.085
-73.303
-65.877
-57.587
-48.987
-40.524
-32.853
-26.622
-22.194
-19.64
-18.709
-18.987
-20.147
-21.906
-23.977
-26.065
-27.877
-29.195
-29.91
-29.981
-29.389
-28.124
-26.162
-23.498
-20.173
-16.246
-11.789
-6.878
-1.576
4.042
9.892
15.885
21.921
27.928
33.859
39.683
45.382
50.944
56.354
61.61
66.723
71.704
76.56
81.294
85.901
90.382
94.743
98.992
103.136
107.174
111.102
114.913
118.602
122.16
125.575
128.835
131.923
134.823
137.528
140.026
142.308
144.367
146.19
147.769
149.096
150.163
150.96
151.479
151.71
151.646
151.282
150.613
149.635
148.345
146.741
144.824
142.594
140.053
137.206
134.055
130.605
126.866
122.844
118.55
113.995
109.191
104.153
98.897
93.438
87.795
81.987
76.033
69.956
63.776
57.516
51.199
44.849
38.487
32.138
25.825
19.57
13.396
7.324
1.374
-4.433
-10.08
-15.548
-20.82
-25.882
-30.721
-35.323
-39.678
-43.776
-47.61
-51.173
-54.464
-57.478
-60.217
-62.682
-64.876
-66.806
-68.478
-69.903
-71.091
-72.054
-72.808
-73.366
-73.745
-73.962
-74.033
-73.976
-73.807
-73.544
-73.204
-72.803
-72.357
-71.88
-71.388
-70.895
-70.414
-69.959
-69.54
-69.169
-68.855
-68.607
-68.433
-68.337
-68.325
-68.399
-68.56
-68.807
-69.141
-69.556
-70.048
-70.611
-71.236
-71.914
-72.635
-73.387
-74.158
-74.935
-75.705
-76.456
-77.175
-77.851
-78.471
-79.024
-79.501
-79.894
-80.194
-80.393
-80.485
-80.463
-80.324
-80.063
-79.679
