ecg_data_columns
-111.566
-110.722
-109.81
-108.824
-107.76
-106.615
-105.383
-104.062
-102.647
-101.135
-99.522
-97.804
-95.978
-94.04
-91.986
-89.815
-87.522
-85.107
-82.567
-79.901
-77.108
-74.187
-71.138
-67.961
-64.656
-61.223
-57.664
-53.98
-50.172
-46.242
-42.194
-38.03
-33.753
-29.368
-24.878
-20.287
-15.601
-10.825
-5.965
-1.027
3.982
9.055
14.181
19.353
24.56
29.791
35.036
40.283
45.521
50.737
55.92
61.056
66.132
71.135
76.053
80.87
85.574
90.152
94.589
98.874
102.993
106.934
110.686
114.237
117.576
120.695
123.583
126.231
128.631
130.778
132.664
134.285
135.638
136.72
137.53
138.069
138.339
138.342
138.081
137.563
136.793
135.777
134.524
133.044
131.345
129.439
127.338
125.054
122.6
119.988
117.233
114.349
111.348
108.244
105.052
101.784
98.455
95.076
91.661
88.221
84.769
81.315
77.869
74.44
71.036
67.664
64.33
61.04
57.798
54.606
51.47
48.389
45.365
42.399
39.49
36.637
33.838
31.091
28.394
25.743
23.135
20.566
18.034
15.535
13.066
10.623
8.204
5.806
3.426
1.063
-1.286
-3.62
-5.942
-8.249
-10.542
-12.819
-15.077
-17.314
-19.525
-21.708
-23.858
-25.97
-28.038
-30.059
-32.026
-33.934
-35.776
-37.547
-39.241
-40.851
-42.374
-43.803
-45.134
-46.362
-47.484
-48.496
-49.396
-50.182
-50.851
-51.402
-51.836
-52.152
-52.351
-52.436
-52.41
-52.276
-52.038
-51.701
-51.272
-50.757
-50.162
-49.495
-48.762
-47.973
-47.134
-46.255
-45.342
-44.405
-43.452
-42.49
-41.528
-40.572
-39.629
-38.706
-37.808
-36.941
-36.109
-35.317
-34.569
-33.867
-33.216
-32.616
-32.07
-31.578
-31.141
-30.758
-30.428
-30.148
-29.918
-29.732
-29.59
-29.486
-29.417
-29.379
-29.367
-29.377
-29.404
-29.444
-29.491
-29.542
-29.59
-29.634
-29.668
-29.689
-29.695
-29.683
-29.65
-29.596
-29.518
-29.416
-29.288
-29.135
-28.957
-28.753
-28.525
-28.273
-28.001
-27.709
-27.402
-27.081
-26.75
-26.413
-26.074
-25.735
-25.402
-25.077
-24.766
-24.473
-24.201
-23.957
-23.743
-23.565
-23.426
-23.331
-23.283
-23.285
-23.34
-23.45
-23.618
-23.845
-24.132
-24.482
-24.895
-25.373
-25.914
-26.52
-27.188
-27.919
-28.71
-29.559
-30.463
-31.419
-32.424
-33.474
-34.565
-35.694
-36.855
-38.044
-39.255
-40.483
-41.721
-42.963
-44.202
-45.43
-46.639
-47.822
-48.972
-50.08
-51.14
-52.143
-53.081
-53.947
-54.733
-55.432
-56.034
-56.534
-56.922
-57.194
-57.341
-57.361
-57.245
-56.991
-56.592
-56.047
-55.352
-54.505
-53.503
-52.345
-51.03
-49.559
-47.934
-46.156
-44.228
-42.154
-39.942
-37.6
-35.138
-32.565
-29.893
-27.132
-24.296
-21.397
-18.446
-15.454
-12.429
-9.384
-6.333
-3.29
-0.272
2.707
5.632
8.487
11.258
13.93
16.493
18.944
21.276
23.476
25.531
27.413
29.104
30.593
31.867
32.921
33.759
34.39
34.838
35.143
35.338
35.449
35.495
35.48
35.422
35.352
35.297
35.293
35.371
35.543
35.835
36.257
36.769
37.318
37.819
38.16
38.285
38.134
37.621
36.694
35.26
33.221
30.551
27.168
22.948
17.913
12.155
5.917
-0.263
-5.907
-10.627
-13.904
-15.39
-15.093
-13.238
-10.598
-8.351
-7.405
-8.547
-12.454
-19.135
-27.916
-37.374
-45.129
-48.635
-45.344
-32.501
-8.155
28.797
77.446
134.063
195.77
260.57
326.822
395.066
460.532
513.297
544.779
545.422
513.865
458.926
389.506
316.098
244.874
175.2
107.887
44.608
-11.335
-54.956
-84.375
-100.113
-103.764
-98.324
-86.316
-70.254
-53.639
-38.925
-27.318
-19.448
-14.94
-12.971
-12.957
-13.884
-14.227
-13.166
-10.451
-6.095
-0.627
5.428
11.752
17.828
23.039
27.071
29.801
31.263
31.709
31.334
30.268
28.721
26.911
25.034
23.291
21.811
20.651
19.872
19.522
19.629
20.222
21.297
22.823
24.764
27.081
29.732
32.684
35.884
39.276
42.79
46.352
49.904
53.407
56.829
60.15
63.351
66.416
69.343
72.141
74.814
77.363
79.786
82.075
84.226
86.24
88.118
89.862
91.467
92.929
94.24
95.394
96.382
97.195
97.82
98.242
98.449
98.434
98.188
97.704
96.978
96.001
94.769
93.277
91.522
89.5
87.204
84.633
81.782
78.65
75.238
71.544
67.572
63.323
58.802
54.014
48.966
43.666
38.124
32.349
26.355
20.155
13.765
7.202
0.483
-6.373
-13.345
-20.411
-27.55
-34.739
-41.955
-49.174
-56.371
-63.522
-70.601
-77.585
-84.447
-91.163
-97.709
-104.06
-110.193
-116.086
-121.719
-127.07
-132.123
-136.859
-141.264
-145.325
-149.029
-152.368
-155.333
-157.922
-160.13
-161.958
-163.408
-164.485
-165.196
-165.551
-165.561
-165.24
-164.604
-163.67
-162.459
-160.99
-159.288
-157.377
-155.281
-153.028
-150.643
-148.156
-145.594
-142.984
-140.354
-137.731
-135.143
-132.614
-130.17
-127.834
-125.63
-123.578
-121.697
-120.007
-118.521
-117.254
-116.217
-115.419
-114.868
-114.567
-114.518
-114.722
-115.176
-115.875
-116.812
-117.979
-119.363
-120.953
-122.733
-124.686
-126.795
-129.04
-131.402
-133.861
-136.394
-138.98
-141.599
-144.228
-146.848
-149.438
-151.977
-154.448
-156.831
-159.111
-161.272
-163.3
-165.182
-166.908
-168.468
-169.854
-171.062
-172.086
-172.926
-173.58
-174.05
-174.338
-174.451
-174.394
-174.175
-173.803
-173.289
-172.644
-171.881
-171.012
-170.051
-169.011
-167.905
-166.747
-165.548
-164.322
-163.079
-161.83
-160.583
-159.346
-158.127
-156.929
-155.757
-154.612
-153.495
-152.405
-151.339
-150.294
-149.262
-148.237
-147.211
-146.172
-145.11
-144.01
-142.86
-141.644
-140.346
-138.949
-137.437
-135.791
-133.996
-132.032
-129.884
-127.534
-124.967
-122.167
-119.121
-115.816
-112.242
-108.39
-104.252
-99.824
-95.104
-90.091
-84.786
-79.193
-73.318
-67.169
-60.754
-54.085
-47.176
-40.042
-32.7
-25.17
-17.473
-9.631
-1.669
6.39
14.519
22.691
30.879
39.056
47.195
55.268
63.246
71.102
78.807
86.334
93.657
100.751
107.591
114.156
120.425
126.38
132.006
137.287
142.212
146.77
150.949
154.739
158.132
161.121
163.7
165.866
167.618
168.957
169.888
170.421
170.566
170.335
169.739
168.791
167.502
165.883
163.948
161.711
159.186
156.392
153.348
150.074
146.593
142.927
139.094
135.102
130.949
126.635
122.165
117.554
112.819
107.978
103.058
98.087
93.11
88.178
83.334
78.619
74.055
69.655
65.434
61.426
57.682
54.239
51.103
48.243
45.627
43.228
41.028
38.995
37.026
34.988
32.772
30.252
27.337
23.995
20.101
15.501
10.175
4.141
-2.427
-9.059
-15.362
-21.044
-25.678
-29.027
-31.188
-32.178
-32.354
-32.88
-34.89
-39.285
-47.106
-57.471
-67.646
-77.036
-85.13
-91.763
-99.393
-104.265
-99.3
-80.204
-40.676
18.753
91.595
173.694
256.483
330.645
387.489
416.832
414.568
383.12
330.851
268.597
203.582
139.038
74.226
8.382
-56.183
-115.073
-163.053
-197.03
-216.929
-224.418
-221.71
-210.601
-192.875
-171.012
-148.214
-127.367
-109.984
-96.361
-86.421
-80.068
-77.262
-77.716
-80.017
-82.361
-83.826
-84.189
-83.5
-81.942
-79.358
-75.365
-70.412
-65.467
-61.059
-57.434
-54.573
-52.2
-50.307
-49.146
-48.601
-48.265
-47.851
-47.097
-45.91
-44.405
-42.586
-40.362
-37.716
-34.677
-31.293
-27.658
-23.82
-19.769
-15.522
-11.101
-6.543
-1.916
2.735
7.387
12.024
16.64
21.23
25.781
30.289
34.758
39.191
43.592
47.963
52.298
56.592
60.844
65.057
69.238
73.39
77.51
81.593
85.631
89.617
93.542
97.395
101.161
104.829
108.386
111.823
115.132
118.304
121.329
124.199
126.903
129.435
131.784
133.943
135.903
137.658
139.2
140.525
141.628
142.505
143.154
143.571
143.754
143.704
143.419
142.899
142.145
141.16
139.947
138.511
136.857
134.991
132.922
130.658
128.209
125.584
122.795
119.853
116.771
113.56
110.233
106.804
103.285
99.691
96.034
92.328
88.586
84.821
81.046
77.272
73.512
69.777
66.078
62.427
58.834
55.308
51.859
48.495
45.224
42.054
38.99
36.039
33.203
30.488
27.895
25.427
23.085
20.868
18.776
16.807
14.959
13.229
11.613
10.109
8.711
7.414
6.214
5.107
4.086
3.147
2.284
1.493
0.766
0.1
-0.512
-1.075
-1.595
-2.076
-2.525
-2.946
-3.344
-3.724
-4.088
-4.442
-4.789
-5.131
-5.47
-5.81
-6.15
-6.492
-6.836
-7.181
-7.526
-7.871
-8.213
-8.55
-8.881
-9.204
-9.515
-9.813
-10.095
-10.359
-10.603
-10.824
-11.02
-11.19
-11.33
-11.439
-11.517
-11.562
-11.572
-11.548
-11.489
-11.395
-11.267
-11.105
-10.91
-10.685
-10.431
-10.152
-9.85
-9.531
-9.198
-8.857
-8.514
-8.174
-7.844
-7.53
-7.238
-6.974
-6.745
-6.557
-6.416
-6.327
-6.297
-6.329
-6.43
-6.601
-6.848
-7.172
-7.574
-8.056
-8.615
-9.253
-9.967
-10.754
-11.613
-12.538
-13.525
-14.568
-15.662
-16.799
-17.969
-19.164
-20.373
-21.585
-22.788
-23.971
-25.122
-26.226
-27.273
-28.251
-29.147
-29.949
-30.647
-31.228
-31.68
-31.996
-32.166
-32.182
-32.036
-31.724
-31.242
-30.592
-29.775
-28.792
-27.648
-26.347
-24.895
-23.298
-21.563
-19.694
-17.698
-15.582
-13.358
-11.041
-8.645
-6.187
-3.683
-1.153
1.386
3.915
6.419
8.889
11.309
13.661
15.927
18.076
20.084
21.931
23.597
25.066
26.337
27.413
28.308
29.051
29.661
30.157
30.558
30.874
31.123
31.33
31.503
31.664
31.837
32.033
32.265
32.532
32.782
32.955
32.988
32.797
32.327
31.533
30.342
28.685
26.479
23.634
20.116
15.89
10.902
5.153
-1.318
-8.294
-15.309
-21.857
-27.507
-31.942
-35.047
-36.827
-37.19
-36.585
-36.074
-36.564
-39.118
-43.441
-47.311
-50.101
-52.201
-54.758
-60.913
-68.101
-68.672
-55.804
-21.778
32.83
98.799
167.894
230.528
281.49
321.665
350.194
366.634
370.2
357.966
329.441
286.689
232.614
171.694
108.792
47.55
-8.467
-55.539
-91.43
-115.352
-127.4
-129
-122.442
-109.743
-93.427
-76.689
-61.655
-49.539
-41.066
-36.007
-33.737
-33.808
-35.304
-36.835
-37.601
-37.199
-35.464
-32.751
-29.436
-25.749
-22.113
-19.043
-16.791
-15.461
-15.028
-15.261
-15.959
-16.962
-18.041
-18.982
-19.657
-19.981
-19.913
-19.449
-18.562
-17.228
-15.449
-13.234
-10.593
-7.543
-4.1
-0.295
3.823
8.194
12.75
17.43
22.191
26.999
31.826
36.65
41.454
46.224
50.954
55.643
60.283
64.862
69.37
73.796
78.137
82.389
86.549
90.613
94.578
98.438
102.186
105.813
109.307
112.658
115.852
118.875
121.717
124.365
126.812
129.051
131.073
132.872
134.441
135.777
136.871
137.72
138.317
138.658
138.737
138.552
138.099
137.378
136.387
135.127
133.599
131.805
129.748
127.432
124.86
122.04
118.978
115.68
112.156
108.416
104.47
100.331
96.01
91.523
86.883
82.105
77.205
72.199
67.103
61.934
56.709
51.446
46.16
40.871
35.596
30.352
25.155
20.024
14.974
10.021
5.181
0.467
-4.106
-8.526
-12.782
-16.862
-20.757
-24.459
-27.961
-31.258
-34.344
-37.218
-39.878
-42.324
-44.558
-46.581
-48.399
-50.017
-51.441
-52.677
-53.735
-54.623
-55.35
-55.927
-56.363
-56.669
-56.856
-56.936
-56.918
-56.815
-56.636
-56.394
-56.098
-55.759
-55.386
-54.989
-54.577
-54.158
-53.74
-53.33
-52.933
-52.555
-52.202
-51.876
-51.581
-51.318
-51.089
-50.894
-50.733
-50.605
-50.507
-50.439
-50.398
-50.381
-50.386
-50.41
-50.451
-50.507
-50.574
-50.652
-50.737
-50.83
-50.927
-51.029
-51.134
-51.243
-51.356
-51.473
-51.594
-51.722
-51.856
-51.998
-52.149
-52.311
-52.487
-52.676
-52.883
-53.109
-53.356
-53.629
-53.928
-54.257
-54.618
-55.012
-55.44
-55.903
-56.401
-56.933
-57.497
-58.091
-58.715
-59.364
-60.035
-60.724
-61.426
-62.134
-62.843
-63.546
-64.234
-64.9
-65.535
-66.131
-66.682
-67.18
-67.619
-67.992
-68.293
-68.518
-68.66
-68.714
-68.675
-68.54
-68.303
-67.964
-67.521
-66.976
-66.332
-65.594
-64.769
-63.864
-62.886
-61.845
-60.746
-59.599
-58.409
-57.183
-55.93
-54.659
-53.383
-52.114
-50.866
-49.654
-48.49
-47.385
-46.348
-45.387
-44.509
-43.718
-43.018
-42.418
-41.934
-41.589
-41.405
-41.393
-41.559
-41.907
-42.434
-43.14
-44.016
-45.03
-46.154
-47.36
-48.617
-49.921
-51.27
-52.64
-54.001
-55.305
-56.509
-57.614
-58.628
-59.54
-60.333
-60.972
-61.449
-61.842
-62.245
-62.748
-63.46
-64.412
-65.652
-67.345
-69.541
-72.195
-75.164
-78.012
-80.281
-81.738
-82.055
-80.882
-78.351
-74.731
-70.612
-67.354
-66.152
-67.876
-73.64
-84.047
-98.423
-115.616
-133.776
-149.648
-160.098
-162.182
-152.373
-129.287
-94.625
-50.186
2.516
63.798
135.806
216.388
296.549
361.244
395.732
393.134
356.471
298.455
232.667
167.12
104.744
43.479
-18.1
-77.57
-130.312
-171.261
-197.934
-210.705
-211.48
-202.82
-186.903
-166.012
-143.272
-121.724
-103.333
-89.043
-78.885
-72.398
-69.156
-68.556
-69.406
-70.303
-70.382
-69.329
-67.241
-64.506
-61.422
-58.202
-55.242
-53.008
-51.731
-51.453
-52.047
-53.226
-54.753
-56.446
-58.094
-59.536
-60.671
-61.42
-61.758
-61.7
-61.242
-60.39
-59.166
-57.568
-55.608
-53.315
-50.714
-47.854
-44.793
-41.587
-38.295
-34.959
-31.603
-28.248
-24.908
-21.59
-18.298
-15.029
-11.777
-8.547
-5.344
-2.172
0.96
4.052
7.105
10.118
13.091
16.025
18.913
21.751
24.53
27.241
29.872
32.41
34.842
37.154
39.339
41.387
43.292
45.046
46.643
48.079
49.347
50.444
51.364
52.103
52.655
53.017
53.187
53.163
52.946
52.536
51.935
51.146
50.173
49.021
47.695
46.201
44.544
42.733
40.775
38.678
36.452
34.108
31.655
29.106
26.47
23.76
20.986
18.159
15.29
12.388
9.463
6.524
3.581
0.641
-2.287
-5.194
-8.073
-10.916
-13.716
-16.469
-19.169
-21.811
-24.391
-26.908
-29.358
-31.74
-34.052
-36.293
-38.463
-40.563
-42.593
-44.557
-46.455
-48.292
-50.071
-51.796
-53.47
-55.098
-56.684
-58.23
-59.741
-61.217
-62.663
-64.079
-65.467
-66.83
-68.167
-69.479
-70.767
-72.03
-73.267
-74.476
-75.655
-76.803
-77.917
-78.994
-80.031
-81.026
-81.974
-82.871
-83.715
-84.501
-85.223
-85.876
-86.456
-86.955
-87.368
-87.69
-87.914
-88.035
-88.048
-87.948
-87.732
-87.396
-86.937
-86.354
-85.644
-84.808
-83.847
-82.761
-81.553
-80.227
-78.786
-77.236
-75.582
-73.83
-71.985
-70.055
-68.045
-65.965
-63.821
-61.623
-59.379
-57.099
-54.793
-52.473
-50.149
-47.833
-45.536
-43.27
-41.045
-38.875
-36.77
-34.742
-32.802
-30.96
-29.225
-27.607
-26.114
-24.752
-23.524
-22.434
-21.484
-20.674
-20.004
-19.469
-19.067
-18.796
-18.653
-18.635
-18.737
-18.953
-19.277
-19.702
-20.222
-20.824
-21.494
-22.216
-22.975
-23.759
-24.555
-25.351
-26.13
-26.879
-27.585
-28.24
-28.831
-29.343
-29.752
-30.032
-30.169
-30.165
-30.032
-29.777
-29.405
-28.923
-28.348
-27.703
-27.004
-26.244
-25.398
-24.433
-23.338
-22.119
-20.802
-19.413
-17.957
-16.418
-14.779
-13.036
-11.186
-9.214
-7.077
-4.721
-2.13
0.659
3.551
6.449
9.288
12.037
14.683
17.209
19.582
21.756
23.707
25.438
26.937
28.174
29.074
29.549
29.572
29.186
28.497
27.623
26.639
25.58
24.457
23.287
22.081
20.865
19.64
18.36
16.982
15.474
13.832
12.062
10.148
7.986
5.353
2.139
-1.633
-5.78
-9.867
-13.491
-16.412
-18.302
-18.759
-17.778
-15.644
-13.06
-11.474
-12.098
-15.645
-22.95
-34.502
-49.746
-67.546
-85.86
-101.325
-110.983
-112.406
-102.783
-80.082
-43.908
5.138
64.929
131.405
200.438
267.676
327.492
374.782
405.933
417.922
410.24
384.266
340.526
281.845
210.654
129.463
46.301
-32.166
-98.116
-143.362
-169.72
-180.225
-178.349
-170.056
-155.029
-132.931
-106.9
-79.596
-54.72
-34.874
-20.345
-10.946
-6.437
-6.7
-10.469
-15.363
-19.768
-22.85
-24.308
-24.439
-23.172
-19.953
-15.162
-9.98
-5.17
-1.21
1.767
4.086
5.816
6.707
6.878
6.774
6.708
6.955
7.641
8.634
9.915
11.572
13.61
16
18.708
21.66
24.815
28.191
31.77
35.518
39.396
43.337
47.294
51.247
55.175
59.069
62.925
66.738
70.507
74.235
77.925
81.576
85.191
88.765
92.297
95.787
99.24
102.664
106.068
109.453
112.82
116.165
119.482
122.768
126.016
129.215
132.357
135.436
138.444
141.378
144.234
147.005
149.687
152.274
154.761
157.142
159.411
161.561
163.587
165.483
167.242
168.862
170.337
171.663
172.836
173.854
174.712
175.41
175.944
176.314
176.516
176.551
176.42
176.122
175.659
175.034
174.25
173.31
172.22
170.983
169.607
168.095
166.455
164.693
162.815
160.829
158.741
156.559
154.29
151.943
149.526
147.046
144.511
141.93
139.309
136.657
133.981
131.288
128.584
125.876
123.17
120.473
117.789
115.123
112.479
109.862
107.274
104.718
102.196
99.709
97.257
94.841
92.459
90.112
87.798
85.514
83.26
81.032
78.828
76.646
74.483
72.335
70.2
68.075
65.955
63.839
61.724
59.606
57.483
55.352
53.211
51.058
48.891
46.708
44.508
42.29
40.054
37.799
35.526
33.237
30.931
28.611
26.279
23.938
21.591
19.242
16.893
14.55
12.216
9.896
7.596
5.32
3.072
0.859
-1.315
-3.446
-5.528
-7.558
-9.53
-11.442
-13.288
-15.065
-16.77
-18.4
-19.951
-21.422
-22.81
-24.113
-25.33
-26.46
-27.502
-28.455
-29.319
-30.094
-30.781
-31.379
-31.889
-32.314
-32.653
-32.91
-33.085
-33.183
-33.203
-33.15
-33.025
-32.831
-32.568
-32.239
-31.843
-31.383
-30.857
-30.266
-29.611
-28.89
-28.103
-27.25
-26.33
-25.34
-24.279
-23.146
-21.939
-20.655
-19.292
-17.849
-16.325
-14.719
-13.031
-11.26
-9.406
-7.469
-5.451
-3.35
-1.167
1.097
3.442
5.867
8.368
10.943
13.584
16.284
19.034
21.827
24.651
27.497
30.355
33.216
36.072
38.917
41.742
44.538
47.294
49.999
52.644
55.218
57.711
60.113
62.416
64.614
66.704
68.683
70.545
72.28
73.876
75.311
76.57
77.645
78.531
79.223
79.726
80.05
80.216
80.268
80.24
80.166
80.086
80.026
80.019
80.106
80.321
80.715
81.328
82.162
83.217
84.491
85.965
87.632
89.445
91.276
93.005
94.508
95.643
96.336
96.468
95.842
94.408
92.209
89.39
86.355
83.466
80.903
79.012
78.199
78.491
79.793
81.672
83.022
83.041
81.305
77.151
70.198
60.931
50.27
39.949
32.817
31.316
37.551
54.029
82.5
123.264
175.606
237.432
305.187
375.112
442.963
503.428
551.722
584.52
599.613
596.05
574.032
534.648
480.561
416.305
346.832
276.385
208.697
147.162
95.11
55.238
28.502
13.985
9.79
14.051
24.975
40.498
57.873
74.295
88.051
98.606
106.196
111.228
113.994
114.909
114.912
115.19
116.437
118.794
122.007
125.653
129.432
133.138
136.422
138.836
140.135
140.288
139.425
137.813
135.688
133.226
130.622
128.087
125.769
123.769
122.147
120.904
120.045
119.577
119.493
119.783
120.431
121.403
122.664
124.174
125.879
127.723
129.648
131.591
133.507
135.366
137.145
138.833
140.426
141.923
143.327
144.647
145.889
147.059
148.16
149.195
150.17
151.093
151.971
152.816
153.633
154.428
155.201
155.954
156.686
157.395
158.077
158.725
159.335
159.904
160.428
160.907
161.337
161.715
162.036
162.298
162.497
162.626
162.679
162.65
162.532
162.319
162.005
161.585
161.052
160.401
159.627
158.724
157.688
156.514
155.197
153.732
152.115
150.342
148.408
146.31
144.044
141.606
138.993
136.202
133.231
130.076
126.734
123.203
119.481
115.566
111.458
107.155
102.657
97.964
93.077
87.998
82.728
77.268
71.62
65.788
59.772
53.577
47.206
40.661
33.948
27.07
20.031
12.838
5.495
-1.991
-9.614
-17.367
-25.242
-33.23
-41.32
-49.501
-57.762
-66.09
-74.469
-82.886
-91.325
-99.77
-108.205
-116.616
-124.983
-133.291
-141.524
-149.663
-157.691
-165.592
-173.346
-180.937
-188.348
-195.563
-202.565
-209.341
-215.875
-222.153
-228.164
-233.895
-239.336
-244.476
-249.307
-253.821
-258.014
-261.884
-265.432
-268.658
-271.57
-274.175
-276.485
-278.514
-280.276
-281.786
-283.061
-284.121
-284.984
-285.669
-286.194
-286.582
-286.857
-287.045
-287.177
-287.282
-287.39
-287.534
-287.746
-288.059
-288.501
-289.101
-289.879
-290.859
-292.068
-293.535
-295.293
-297.367
-299.77
-302.515
-305.61
-309.053
-312.833
-316.924
-321.276
-325.857
-330.648
-335.636
-340.828
-346.224
-351.816
-357.603
-363.582
-369.749
-376.11
-382.657
-389.369
-396.248
-403.309
-410.597
-418.191
-426.13
-434.409
-443.002
-451.854
-460.891
-470.039
-479.191
-488.21
-496.979
-505.383
-513.335
-520.776
-527.618
-533.748
-539.029
-543.289
-546.405
-548.312
-548.965
-548.354
-546.507
-543.467
-539.336
-534.272
-528.402
-521.834
-514.655
-506.918
-498.71
-490.141
-481.332
-472.431
-463.556
-454.788
-446.203
-437.863
-429.79
-421.993
-414.436
-407.034
-399.735
-392.517
-385.371
-378.314
-371.354
-364.478
-357.682
-350.955
-344.285
-337.675
-331.124
-324.632
-318.229
-311.95
-305.841
-299.969
-294.372
-289.063
-284.048
-279.302
-274.791
-270.486
-266.347
-262.333
-258.418
-254.572
-250.767
-246.982
-243.161
-239.253
-235.225
-231.052
-226.742
-222.323
-217.82
-213.274
-208.754
-204.34
-200.129
-196.209
-192.655
-189.533
-186.866
-184.738
-183.282
-182.507
-182.319
-182.461
-182.467
-181.96
-180.67
-178.177
-174.114
-168.427
-161.259
-153.303
-145.682
-139.19
-134.551
-132.532
-133.239
-136.116
-140.204
-143.557
-143.558
-137.907
-123.922
-98.649
-61.7
-15.185
38.614
96.158
157.325
227.086
305.669
388.272
462.236
505.816
505.039
457.585
373.951
276.793
183.377
102.838
36.536
-21.382
-71.888
-112.59
-141.26
-154.464
-152.531
-139.369
-118.405
-93.464
-69.168
-47.549
-28.323
-12.735
-1.758
3.263
-2.867
-19.99
-41.181
-58.934
-60.92
-40.453
-3.377
41.615
81.056
102.738
105.487
92.84
71.209
51.025
39.633
39.652
52.855
75.027
97.671
115.906
125.472
126.291
123.971
121.866
122.137
125.671
130.501
135.689
141.371
147.515
154.495
162.462
171.131
180.385
190.243
200.63
211.436
222.54
233.793
245.107
256.445
267.724
278.824
289.631
300.023
309.873
319.022
327.251
334.332
340.086
344.39
347.204
348.559
348.548
347.326
345.038
341.832
337.864
333.293
328.309
323.136
317.942
312.865
308.126
303.99
300.732
298.673
297.997
298.686
300.836
304.725
310.372
317.601
326.326
336.048
347.133
361.268
377.931
395.244
410.209
417.215
416.18
412.164
410.235
417.783
435.285
455.45
472.631
480.792
478.75
471.907
463.654
456.274
450.531
444.168
436.128
426.69
416.006
404.718
393.252
381.344
368.883
356.159
343.407
330.641
317.887
304.821
290.926
276.427
261.783
247.322
233.486
220.616
208.867
198.882
191.703
187.534
186.064
186.628
188.012
189.373
190.211
189.527
185.906
178.436
166.686
150.974
132.568
112.413
91.141
69.763
49.393
31.034
15.561
3.08
-7.282
-16.377
-25.103
-34.486
-45.078
-57.378
-72.05
-89.26
-108.484
-128.764
-148.514
-166.248
-181.282
-193.112
-201.17
-205.043
-204.6
-200.627
-195.029
-189.727
-186.512
-187.315
-194.006
-209.019
-235.324
-275.256
-330.461
-402.476
-492.116
-599.98
-726.927
-872.816
-1034.859
-1208.142
-1387.714
-1568.613
-1750.63
-1937.383
-2126.837
-2312.838
-2481.582
-2613.358
-2699.422
-2740.14
-2745.218
-2730.262
-2699.88
-2653.821
-2590.321
-2512.702
-2439.374
-2388.282
-2369.774
-2377.182
-2383.658
-2362.817
-2297.361
-2187.364
-2050.524
-1906.254
-1768.21
-1640.289
-1517.004
-1390.81
-1257.705
-1117.853
-974.767
-833.53
-697.783
-569.629
-450.337
-340.832
-240.608
-148.981
-66.741
7.191
71.756
125.445
173.086
217.795
263.501
315.133
368.14
418.178
462.264
495.976
522.042
543.657
561.828
578.739
593.995
606.979
618.46
628.676
637.91
646.396
653.973
660.493
665.979
670.469
673.96
676.477
678.096
678.878
678.883
678.199
676.844
674.835
672.248
669.118
665.512
661.542
657.278
652.801
648.172
643.396
638.481
633.444
628.261
622.916
617.394
611.639
605.6
599.229
592.442
585.209
577.529
569.401
560.849
551.902
542.59
532.975
523.137
513.137
503.043
492.927
482.847
472.887
463.146
453.716
444.675
436.063
427.857
420.003
412.447
405.12
397.963
390.931
383.957
376.986
369.984
362.887
355.668
348.328
340.778
332.957
324.917
316.841
309.158
302.449
297.146
293.461
291.684
292.08
294.575
298.607
302.957
306.023
307.494
308.747
310.739
313.222
313.014
305.848
291.948
276.995
272.588
289.343
329.388
388.688
456.449
522.48
584.29
638.291
680.333
706.402
707.576
681.471
634.289
572.902
507.068
442.64
379.159
317.396
258.815
206.614
165.434
137.111
121.429
116.924
120.902
131.197
145.501
160.67
174.525
185.904
194.147
199.492
202.529
203.603
203.506
203.55
204.454
206.492
209.695
213.621
217.855
222.169
226.148
229.255
231.21
231.899
231.355
229.824
227.497
224.534
221.152
217.577
214.013
210.619
207.495
204.687
202.231
200.165
198.512
197.287
196.484
196.085
196.062
196.383
197.022
197.933
199.066
200.367
201.772
203.233
204.723
206.221
207.714
209.199
210.669
212.127
213.584
215.048
216.524
218.016
219.522
221.042
222.58
224.14
225.727
227.342
228.979
230.633
232.297
233.962
235.618
237.253
238.849
240.393
241.873
243.278
244.598
245.823
246.942
247.942
248.816
249.552
250.139
250.568
250.826
250.904
250.792
250.481
249.965
249.236
248.289
247.119
245.722
244.095
242.239
240.151
237.832
235.284
232.511
229.515
226.304
222.882
219.257
215.437
211.431
207.251
202.906
198.408
193.77
189.003
184.12
179.136
174.063
168.914
163.705
158.448
153.158
147.85
142.535
137.23
131.945
126.695
121.491
116.344
111.267
106.268
101.357
96.542
91.832
87.234
82.753
78.396
74.165
70.066
66.104
62.279
58.588
55.029
51.6
48.298
45.126
42.079
39.144
36.321
33.626
31.066
28.655
26.387
24.231
22.176
20.249
18.422
16.628
14.812
12.915
10.926
8.926
6.933
4.855
2.781
1.025
-0.353
-1.447
-2.219
-3.014
-3.189
-0.78
3.761
8.639
10.856
4.812
-9.074
-25.201
-37.958
-39.387
-29.086
-14.561
-1.605
3.491
-0.287
-7.321
-14.191
-18.529
-19.658
-19.872
-20.196
-20.557
-21.036
-21.287
-21.232
-21.183
-21.232
-21.33
-21.489
-21.726
-22.03
-22.392
-22.785
-23.158
-23.498
-23.832
-24.169
-24.508
-24.852
-25.2
-25.554
-25.925
-26.314
-26.719
-27.14
-27.576
-28.027
-28.493
-28.974
-29.467
-29.97
-30.481
-30.996
-31.513
-32.027
-32.534
-33.029
-33.508
-33.968
-34.404
-34.813
-35.189
-35.529
-35.83
-36.09
-36.305
-36.473
-36.591
-36.659
-36.679
-36.651
-36.579
-36.462
-36.305
-36.109
-35.881
-35.62
-35.329
-35.007
-34.658
-34.286
-33.896
-33.495
-33.091
-32.691
-32.307
-31.952
-31.635
-31.364
-31.141
-30.97
-30.858
-30.817
-30.863
-31.007
-31.255
-31.615
-32.097
-32.702
-33.425
-34.244
-35.124
-36.041
-36.98
-37.929
-38.889
-39.847
-40.783
-41.682
-42.539
-43.349
-44.113
-44.833
-45.497
-46.13
-46.795
-47.562
-48.526
-49.754
-51.252
-53.032
-55.107
-57.497
-60.273
-63.503
-67.183
-71.336
-76.034
-81.309
-87.173
-93.425
-99.531
-104.92
-109.096
-111.656
-112.324
-110.866
-107.288
-102.328
-97.31
-93.725
-92.067
-91.504
-91.392
-92.075
-96.744
-109.449
-129.857
-152.188
-164.189
-152.727
-112.595
-47.674
30.178
107.646
176.648
234.736
283.078
321.724
348.593
360.501
353.82
327.816
284.558
227.3
160.898
90.58
20.69
-44.505
-100.702
-144.736
-174.945
-191.016
-194.208
-186.806
-171.138
-149.862
-126.355
-103.801
-84.372
-69.281
-58.725
-52.167
-49.036
-48.596
-49.533
-50.435
-50.387
-48.963
-46.239
-42.621
-38.448
-34.024
-29.809
-26.3
-23.78
-22.329
-21.836
-22.056
-22.768
-23.787
-24.922
-25.974
-26.816
-27.37
-27.584
-27.456
-26.981
-26.142
-24.94
-23.38
-21.465
-19.215
-16.663
-13.839
-10.793
-7.578
-4.243
-0.842
2.581
6.004
9.401
12.761
16.076
19.34
22.551
25.71
28.816
31.864
34.855
37.783
40.646
43.445
46.18
48.851
51.459
53.998
56.461
58.842
61.129
63.314
65.385
67.329
69.135
70.793
72.296
73.638
74.812
75.811
76.631
77.266
77.71
77.96
78.009
77.852
77.484
76.902
76.103
75.086
73.85
72.395
70.722
68.833
66.732
64.423
61.911
59.203
56.305
53.224
49.971
46.555
42.986
39.277
35.438
31.483
27.424
23.275
19.047
14.756
10.412
6.03
1.623
-2.796
-7.214
-11.618
-15.994
-20.328
-24.608
-28.821
-32.954
-36.995
-40.934
-44.76
-48.463
-52.036
-55.47
-58.759
-61.898
-64.882
-67.708
-70.374
-72.878
-75.221
-77.404
-79.428
-81.296
-83.011
-84.578
-86
-87.282
-88.429
-89.447
-90.342
-91.118
-91.782
-92.341
-92.8
-93.168
-93.45
-93.655
-93.788
-93.858
-93.871
-93.835
-93.756
-93.64
-93.493
-93.321
-93.13
-92.922
-92.702
-92.474
-92.238
-91.999
-91.756
-91.51
-91.261
-91.009
-90.753
-90.493
-90.227
-89.955
-89.674
-89.384
-89.084
-88.772
-88.449
-88.112
-87.761
-87.396
-87.014
-86.616
-86.2
-85.766
-85.313
-84.841
-84.348
-83.836
-83.304
-82.751
-82.18
-81.591
-80.985
-80.363
-79.728
-79.082
-78.427
-77.767
-77.104
-76.442
-75.786
-75.138
-74.501
-73.881
-73.28
-72.7
-72.145
-71.615
-71.112
-70.639
-70.195
-69.781
-69.397
-69.043
-68.72
-68.426
-68.161
-67.923
-67.711
-67.521
-67.353
-67.203
-67.067
-66.943
-66.827
-66.716
-66.606
-66.495
-66.378
-66.251
-66.111
-65.952
-65.772
-65.565
-65.328
-65.056
-64.745
-64.395
-64.006
-63.58
-63.118
-62.624
-62.101
-61.552
-60.983
-60.395
-59.79
-59.167
-58.529
-57.877
-57.219
-56.56
-55.905
-55.26
-54.632
-54.029
-53.455
-52.915
-52.409
-51.937
-51.503
-51.112
-50.778
-50.523
-50.363
-50.31
-50.373
-50.557
-50.861
-51.279
-51.794
-52.378
-53.007
-53.656
-54.306
-54.941
-55.537
-56.078
-56.542
-56.89
-57.089
-57.122
-56.991
-56.718
-56.34
-55.874
-55.347
-54.826
-54.395
-54.162
-54.236
-54.716
-55.672
-57.189
-59.435
-62.461
-66.203
-70.472
-74.833
-78.855
-82.257
-84.67
-85.628
-85.116
-83.412
-81.092
-79.428
-79.439
-81.724
-87.227
-96.623
-109.405
-124.349
-139.441
-151.557
-157.977
-156.244
-143.069
-115.757
-74.622
-22.342
37.865
102.581
172.178
248.702
328.178
401.147
453.772
472.685
453.233
400.39
324.323
234.449
138.629
43.609
-43.174
-111.74
-155.458
-174.949
-177.345
-172.045
-165.557
-159.38
-150.709
-138.144
-123.282
-108.654
-97.419
-90.891
-88.177
-88.06
-89.286
-90.511
-90.655
-89.151
-85.776
-80.721
-74.552
-67.781
-60.821
-54.198
-48.414
-43.724
-40.236
-37.882
-36.435
-35.725
-35.616
-35.92
-36.447
-37.029
-37.498
-37.748
-37.718
-37.342
-36.572
-35.373
-33.718
-31.609
-29.066
-26.111
-22.777
-19.101
-15.115
-10.864
-6.398
-1.775
2.937
7.688
12.441
17.164
21.837
26.444
30.968
35.405
39.761
44.035
48.228
52.336
56.352
60.272
64.094
67.82
71.45
74.984
78.415
81.738
84.948
88.038
91.002
93.83
96.51
99.034
101.397
103.593
105.621
107.476
109.157
110.66
111.985
113.132
114.1
114.887
115.494
115.921
116.168
116.239
116.135
115.861
115.419
114.813
114.049
113.132
112.066
110.857
109.511
108.033
106.43
104.706
102.87
100.927
98.884
96.747
94.524
92.22
89.842
87.398
84.893
82.334
79.727
77.079
74.395
71.682
68.946
66.193
63.43
60.661
57.893
55.132
52.382
49.649
46.938
44.254
41.601
38.985
36.408
33.877
31.396
28.967
26.597
24.288
22.045
19.87
17.768
15.741
13.792
11.923
10.138
8.437
6.822
5.296
3.859
2.513
1.258
0.095
-0.976
-1.955
-2.843
-3.639
-4.346
-4.964
-5.494
-5.94
-6.303
-6.585
-6.79
-6.922
-6.983
-6.978
-6.912
-6.79
-6.615
-6.395
-6.132
-5.834
-5.504
-5.149
-4.773
-4.38
-3.977
-3.568
-3.157
-2.749
-2.348
-1.957
-1.582
-1.224
-0.888
-0.577
-0.292
-0.037
0.186
0.375
0.53
0.649
0.731
0.777
0.787
0.761
0.701
0.608
0.484
0.333
0.156
-0.045
-0.265
-0.503
-0.754
-1.018
-1.29
-1.569
-1.851
-2.135
-2.419
-2.701
-2.98
-3.254
-3.522
-3.783
-4.037
-4.283
-4.522
-4.753
-4.975
-5.191
-5.401
-5.606
-5.807
-6.007
-6.208
-6.412
-6.622
-6.842
-7.075
-7.325
-7.596
-7.893
-8.218
-8.577
-8.973
-9.411
-9.893
-10.422
-11.002
-11.635
-12.322
-13.065
-13.864
-14.721
-15.636
-16.61
-17.641
-18.73
-19.876
-21.077
-22.332
-23.639
-24.994
-26.395
-27.839
-29.32
-30.836
-32.381
-33.949
-35.537
-37.138
-38.745
-40.352
-41.952
-43.536
-45.098
-46.631
-48.126
-49.577
-50.978
-52.323
-53.607
-54.826
-55.975
-57.051
-58.051
-58.971
-59.808
-60.562
-61.229
-61.807
-62.297
-62.699
-63.016
-63.253
-63.416
-63.509
-63.537
-63.507
-63.427
-63.301
-63.134
-62.926
-62.683
-62.411
-62.118
-61.815
-61.508
-61.205
-60.914
-60.644
-60.4
-60.186
-60.002
-59.845
-59.716
-59.623
-59.578
-59.603
-59.714
-59.919
-60.225
-60.634
-61.146
-61.752
-62.432
-63.151
-63.88
-64.593
-65.273
-65.904
-66.462
-66.919
-67.238
-67.377
-67.295
-66.97
-66.405
-65.606
-64.603
-63.421
-62.089
-60.69
-59.343
-58.15
-57.211
-56.625
-56.449
-56.802
-57.923
-59.879
-62.578
-65.847
-69.272
-72.47
-75.269
-77.292
-77.972
-77.244
-75.417
-73.074
-71.363
-71.343
-73.689
-79.208
-88.793
-101.323
-113.694
-124.084
-130.732
-133.595
-135.838
-134.141
-120.319
-87.99
-30.52
48.911
137.359
224.764
304.225
374.521
438.047
492.263
527.089
528.819
490.092
412.593
308.763
198.739
96.429
9.585
-59.295
-114.588
-157.487
-187.927
-207.13
-213.054
-206.463
-190.191
-166.39
-140.275
-116.498
-97.089
-83.418
-75.224
-71.238
-70.642
-72.421
-74.896
-76.537
-76.486
-74.402
-70.548
-65.537
-59.843
-53.905
-48.322
-43.638
-40.136
-37.879
-36.709
-36.352
-36.597
-37.259
-38.137
-39.034
-39.776
-40.245
-40.378
-40.15
-39.54
-38.526
-37.097
-35.255
-33.02
-30.423
-27.508
-24.316
-20.883
-17.261
-13.495
-9.637
-5.749
-1.874
1.956
5.719
9.401
12.995
16.49
19.888
23.199
26.429
29.589
32.684
35.716
38.689
41.61
44.486
47.326
50.134
52.911
55.656
58.366
61.038
63.668
66.249
68.77
71.223
73.6
75.895
78.103
80.216
82.228
84.132
85.921
87.59
89.13
90.534
91.795
92.905
93.858
94.647
95.267
95.712
95.977
96.056
95.947
95.646
95.149
94.455
93.562
92.469
91.177
89.686
87.999
86.119
84.05
81.797
79.367
76.766
74.003
71.087
68.025
64.83
61.51
58.078
54.545
50.922
47.222
43.457
39.64
35.785
31.904
28.01
24.116
20.235
16.381
12.564
8.797
5.092
1.459
-2.089
-5.544
-8.895
-12.133
-15.251
-18.239
-21.092
-23.805
-26.371
-28.787
-31.05
-33.158
-35.11
-36.905
-38.543
-40.026
-41.355
-42.532
-43.56
-44.443
-45.185
-45.789
-46.262
-46.608
-46.833
-46.944
-46.946
-46.846
-46.652
-46.371
-46.009
-45.574
-45.074
-44.517
-43.91
-43.261
-42.578
-41.869
-41.141
-40.4
-39.655
-38.91
-38.173
-37.448
-36.741
-36.056
-35.399
-34.772
-34.179
-33.624
-33.11
-32.637
-32.209
-31.826
-31.49
-31.201
-30.96
-30.768
-30.624
-30.529
-30.48
-30.478
-30.522
-30.61
-30.741
-30.912
-31.121
-31.367
-31.647
-31.959
-32.3
-32.667
-33.058
-33.471
-33.904
-34.353
-34.817
-35.294
-35.781
-36.278
-36.782
-37.292
-37.807
-38.327
-38.849
-39.373
-39.898
-40.422
-40.945
-41.466
-41.983
-42.495
-43.001
-43.498
-43.987
-44.465
-44.93
-45.381
-45.817
-46.234
-46.632
-47.008
-47.36
-47.686
-47.985
-48.255
-48.494
-48.701
-48.874
-49.011
-49.111
-49.172
-49.192
-49.17
-49.105
-48.994
-48.838
-48.635
-48.385
-48.089
-47.747
-47.359
-46.927
-46.452
-45.936
-45.379
-44.786
-44.158
-43.498
-42.812
-42.101
-41.372
-40.629
-39.875
-39.115
-38.353
-37.593
-36.837
-36.088
-35.349
-34.623
-33.911
-33.215
-32.538
-31.881
-31.245
-30.63
-30.037
-29.464
-28.91
-28.373
-27.85
-27.338
-26.834
-26.335
-25.837
-25.338
-24.833
-24.319
-23.79
-23.242
-22.671
-22.069
-21.432
-20.755
-20.031
-19.258
-18.434
-17.557
-16.63
-15.654
-14.632
-13.566
-12.461
-11.319
-10.144
-8.937
-7.7
-6.434
-5.146
-3.842
-2.531
-1.22
0.079
1.358
2.608
3.823
4.996
6.123
7.203
8.232
9.204
10.105
10.912
11.605
12.171
12.602
12.895
13.053
13.081
12.992
12.811
12.566
12.284
11.983
11.677
11.371
11.073
10.81
10.623
10.552
10.611
10.789
11.068
11.432
11.878
12.394
12.926
13.377
13.658
13.684
13.381
12.735
11.694
10.111
7.931
5.208
2.138
-0.828
-3.264
-4.95
-5.58
-4.767
-2.456
1.214
5.695
9.723
12.241
12.581
9.869
3.547
-6.019
-17.977
-30.51
-40.618
-45.848
-43.962
-31.96
-7.562
30.129
79.866
137.359
197.566
257.421
317.633
380.123
442.697
497.372
529.374
524.042
476.878
394.893
294.832
195.064
107.128
34.181
-26.169
-75.621
-113.726
-138.6
-147.892
-142.558
-126.136
-102.419
-76.006
-50.984
-29.657
-13.516
-3.243
1.662
2.168
-0.655
-5.181
-9.654
-13.064
-14.903
-15.078
-13.983
-12.049
-9.65
-7.346
-5.751
-5.155
-5.628
-7.072
-9.209
-11.805
-14.679
-17.595
-20.317
-22.707
-24.679
-26.183
-27.235
-27.827
-27.936
-27.575
-26.755
-25.487
-23.8
-21.728
-19.301
-16.568
-13.584
-10.402
-7.081
-3.665
-0.181
3.346
6.899
10.468
14.042
17.618
21.196
24.773
28.344
31.907
35.456
38.989
42.507
46.008
49.494
52.965
56.416
59.843
63.239
66.596
69.905
73.156
76.338
79.439
82.45
85.364
88.172
90.865
93.438
95.885
98.201
100.38
102.414
104.294
106.017
107.584
108.979
110.189
111.204
112.011
112.617
113.038
113.259
113.263
113.088
112.76
112.304
111.753
111.082
110.237
109.254
108.191
106.908
105.234
103.281
101.047
98.505
96.041
92.651
87.361
81.586
75.764
72.487
74.857
79.465
84.039
85.197
78.284
67.438
56.168
46.884
43.555
43.362
43.445
43.175
40.814
37.385
34.206
31.034
28.046
25.162
22.125
19.115
16.276
13.568
10.985
8.548
6.256
4.101
2.078
0.164
-1.671
-3.417
-5.061
-6.61
-8.065
-9.428
-10.705
-11.893
-12.994
-14.011
-14.95
-15.814
-16.608
-17.334
-17.997
-18.6
-19.147
-19.642
-20.088
-20.489
-20.849
-21.171
-21.459
-21.717
-21.946
-22.15
-22.332
-22.494
-22.638
-22.765
-22.876
-22.973
-23.057
-23.128
-23.187
-23.235
-23.272
-23.3
-23.318
-23.327
-23.328
-23.32
-23.304
-23.281
-23.25
-23.211
-23.164
-23.11
-23.049
-22.98
-22.903
-22.819
-22.727
-22.627
-22.519
-22.403
-22.279
-22.146
-22.005
-21.856
-21.7
-21.537
-21.368
-21.195
-21.019
-20.841
-20.664
-20.489
-20.317
-20.151
-19.993
-19.843
-19.705
-19.581
-19.473
-19.383
-19.313
-19.267
-19.246
-19.252
-19.289
-19.357
-19.459
-19.597
-19.772
-19.987
-20.242
-20.54
-20.881
-21.268
-21.7
-22.178
-22.702
-23.272
-23.885
-24.541
-25.237
-25.968
-26.733
-27.527
-28.346
-29.185
-30.04
-30.905
-31.775
-32.644
-33.506
-34.352
-35.177
-35.974
-36.735
-37.452
-38.119
-38.729
-39.276
-39.754
-40.159
-40.484
-40.727
-40.881
-40.944
-40.912
-40.783
-40.556
-40.228
-39.8
-39.276
-38.66
-37.957
-37.177
-36.325
-35.41
-34.443
-33.433
-32.389
-31.319
-30.23
-29.131
-28.033
-26.947
-25.888
-24.868
-23.904
-23.009
-22.198
-21.482
-20.871
-20.373
-19.991
-19.731
-19.599
-19.606
-19.771
-20.106
-20.621
-21.322
-22.205
-23.262
-24.478
-25.831
-27.289
-28.824
-30.405
-32.007
-33.611
-35.2
-36.765
-38.289
-39.734
-41.075
-42.288
-43.365
-44.33
-45.202
-45.997
-46.743
-47.474
-48.241
-49.124
-50.191
-51.505
-53.125
-55.052
-57.335
-60.082
-63.271
-66.798
-70.435
-73.749
-76.396
-78.16
-78.695
-77.715
-75.249
-71.517
-67.124
-63.038
-59.967
-58.509
-59.385
-62.818
-68.325
-74.823
-80.465
-83.175
-81.203
-72.464
-54.8
-27.018
11.17
57.596
108.991
163.714
218.947
273.303
325.206
367.37
394.871
402.913
386.485
349.893
297.953
235.729
171.127
106.092
42.046
-17.856
-71.578
-115.075
-145.427
-162.579
-167.479
-162.278
-149.36
-130.921
-109.887
-89.312
-71.217
-56.669
-45.898
-38.497
-34.051
-32.026
-31.303
-30.579
-29.076
-26.507
-22.979
-18.877
-14.489
-10.034
-5.926
-2.646
-0.452
0.609
0.662
-0.033
-1.255
-2.836
-4.578
-6.265
-7.74
-8.889
-9.655
-10.041
-10.039
-9.638
-8.839
-7.645
-6.072
-4.158
-1.94
0.548
3.26
6.145
9.154
12.226
15.319
18.407
21.472
24.506
27.505
30.466
33.392
36.291
39.169
42.03
44.879
47.715
50.541
53.361
56.179
59
61.824
64.648
67.466
70.269
73.049
75.795
78.496
81.134
83.697
86.174
88.554
90.827
92.983
95.011
96.901
98.644
100.232
101.654
102.902
103.966
104.836
105.508
105.973
106.228
106.266
106.086
105.683
105.058
104.21
103.142
101.855
100.353
98.641
96.727
94.617
92.322
89.851
87.216
84.43
81.505
78.458
75.301
72.05
68.72
65.327
61.885
58.411
54.919
51.424
47.939
44.481
41.061
37.694
34.391
31.164
28.024
24.981
22.043
19.218
16.511
13.929
11.475
9.151
6.96
4.901
2.973
1.174
-0.5
-2.053
-3.491
-4.82
-6.049
-7.185
-8.236
-9.212
-10.121
-10.972
-11.773
-12.534
-13.261
-13.964
-14.648
-15.322
-15.991
-16.661
-17.338
-18.025
-18.726
-19.445
-20.183
-20.941
-21.721
-22.523
-23.344
-24.184
-25.04
-25.908
-26.786
-27.668
-28.548
-29.423
-30.285
-31.127
-31.945
-32.73
-33.476
-34.178
-34.83
-35.427
-35.964
-36.437
-36.845
-37.184
-37.453
-37.652
-37.781
-37.841
-37.832
-37.758
-37.622
-37.426
-37.177
-36.878
-36.535
-36.155
-35.743
-35.308
-34.855
-34.393
-33.929
-33.47
-33.026
-32.603
-32.211
-31.857
-31.549
-31.294
-31.1
-30.972
-30.916
-30.935
-31.032
-31.208
-31.465
-31.801
-32.214
-32.703
-33.263
-33.891
-34.58
-35.326
-36.122
-36.96
-37.831
-38.727
-39.638
-40.555
-41.468
-42.367
-43.243
-44.085
-44.885
-45.635
-46.325
-46.947
-47.493
-47.954
-48.322
-48.592
-48.755
-48.807
-48.743
-48.563
-48.267
-47.859
-47.344
-46.726
-46.012
-45.211
-44.333
-43.383
-42.369
-41.296
-40.173
-39.009
-37.818
-36.612
-35.402
-34.201
-33.022
-31.878
-30.78
-29.736
-28.75
-27.827
-26.975
-26.201
-25.524
-24.966
-24.545
-24.274
-24.163
-24.218
-24.439
-24.822
-25.35
-25.994
-26.732
-27.535
-28.384
-29.259
-30.134
-30.991
-31.802
-32.525
-33.122
-33.574
-33.882
-34.057
-34.128
-34.101
-33.984
-33.837
-33.749
-33.814
-34.122
-34.757
-35.757
-37.204
-39.285
-42.047
-45.401
-49.165
-52.934
-56.328
-59.171
-61.158
-61.844
-61.234
-59.65
-57.599
-56.123
-56.232
-58.577
-63.87
-72.847
-84.177
-94.767
-103.189
-107.927
-109.297
-111.01
-109.859
-98.159
-70.167
-18.273
55.028
135.942
214.428
281.03
332.183
374.167
407.76
428.485
428.99
399.445
338.356
254.02
160.861
73.206
-0.209
-56.767
-100.305
-133.868
-158.94
-177.042
-185.955
-185.171
-175.97
-158.854
-137.327
-115.087
-94.14
-76.427
-62.35
-51.398
-43.69
-39.565
-38.894
-40.954
-44.577
-48.352
-51.599
-54.275
-56.258
-57.201
-56.636
-54.47
-51.199
-47.729
-44.643
-42.069
-39.997
-38.411
-37.52
-37.462
-38.029
-38.779
-39.323
-39.476
-39.219
-38.618
-37.651
-36.252
-34.424
-32.233
-29.778
-27.134
-24.316
-21.315
-18.124
-14.77
-11.305
-7.777
-4.215
-0.634
2.961
6.568
10.177
13.781
17.385
20.987
24.593
28.201
31.804
35.392
38.96
42.504
46.025
49.525
53.001
56.444
59.845
63.193
66.476
69.681
72.791
75.789
78.663
81.397
83.979
86.397
88.638
90.688
92.537
94.171
95.579
96.749
97.673
98.339
98.743
98.878
98.74
98.327
97.637
96.671
95.431
93.919
92.141
90.1
87.805
85.262
82.482
79.475
76.254
72.831
69.22
65.437
61.499
57.422
53.225
48.927
44.547
40.104
35.621
31.116
26.611
22.124
17.677
13.287
8.974
4.755
0.645
-3.339
-7.185
-10.88
-14.414
-17.777
-20.962
-23.963
-26.776
-29.397
-31.824
-34.058
-36.097
-37.946
-39.607
-41.083
-42.38
-43.504
-44.463
-45.263
-45.914
-46.424
-46.804
-47.064
-47.215
-47.267
-47.233
-47.122
-46.947
-46.717
-46.443
-46.135
-45.802
-45.451
-45.09
-44.726
-44.363
-44.006
-43.657
-43.32
-42.994
-42.681
-42.379
-42.087
-41.803
-41.524
-41.249
-40.972
-40.693
-40.406
-40.109
-39.798
-39.469
-39.121
-38.749
-38.351
-37.925
-37.468
-36.978
-36.455
-35.896
-35.302
-34.673
-34.009
-33.312
-32.585
-31.829
-31.048
-30.248
-29.433
-28.61
-27.786
-26.969
-26.166
-25.387
-24.64
-23.936
-23.284
-22.694
-22.173
-21.731
-21.376
-21.115
-20.954
-20.899
-20.953
-21.12
-21.403
-21.802
-22.318
-22.95
-23.696
-24.554
-25.519
-26.587
-27.752
-29.008
-30.346
-31.758
-33.235
-34.767
-36.343
-37.949
-39.575
-41.206
-42.83
-44.432
-45.999
-47.514
-48.963
-50.334
-51.611
-52.784
-53.837
-54.762
-55.549
-56.194
-56.693
-57.043
-57.241
-57.289
-57.189
-56.943
-56.555
-56.026
-55.358
-54.556
-53.627
-52.58
-51.429
-50.182
-48.852
-47.453
-45.999
-44.505
-42.983
-41.44
-39.885
-38.335
-36.809
-35.337
-33.946
-32.655
-31.483
-30.448
-29.553
-28.8
-28.178
-27.657
-27.212
-26.824
-26.48
-26.174
-25.889
-25.6
-25.283
-24.907
-24.449
-23.896
-23.226
-22.436
-21.568
-20.677
-19.848
-19.183
-18.741
-18.594
-18.834
-19.532
-20.792
-22.708
-25.306
-28.675
-32.931
-38.049
-43.958
-50.401
-56.848
-62.845
-68.015
-71.856
-74.037
-74.563
-73.579
-71.769
-70.266
-69.933
-71.561
-75.86
-82.81
-91.637
-101.157
-109.33
-113.423
-110.83
-98.759
-74.618
-38.359
7.749
61.361
120.176
184.518
256.447
333.507
407.144
463.138
486.931
471.291
420.022
347.17
267.423
190.684
121.175
56.477
-4.427
-58.408
-102.146
-132.146
-147.176
-149.474
-142.273
-128.514
-111.42
-94.463
-79.965
-69.301
-63.092
-60.743
-61.224
-63.719
-66.984
-69.432
-70.158
-68.758
-65.193
-59.988
-53.731
-46.856
-39.935
-33.604
-28.198
-23.869
-20.636
-18.309
-16.714
-15.733
-15.198
-14.924
-14.791
-14.675
-14.456
-14.071
-13.446
-12.504
-11.211
-9.542
-7.477
-5.019
-2.188
0.997
4.497
8.272
12.292
16.519
20.91
25.414
29.966
34.516
39.027
43.469
47.821
52.067
56.19
60.187
64.062
67.819
71.46
74.985
78.385
81.659
84.807
87.832
90.736
93.521
96.183
98.717
101.121
103.39
105.517
107.493
109.307
110.949
112.412
113.692
114.784
115.685
116.388
116.892
117.196
117.297
117.194
116.886
116.369
115.646
114.715
113.58
112.242
110.704
108.97
107.044
104.93
102.635
100.164
97.522
94.715
91.751
88.638
85.383
81.998
78.49
74.87
71.15
67.341
63.455
59.504
55.499
51.454
47.381
43.291
39.198
35.115
31.053
27.024
23.041
19.116
15.259
11.481
7.793
4.203
0.72
-2.646
-5.888
-8.999
-11.972
-14.801
-17.48
-20.003
-22.368
-24.57
-26.606
-28.476
-30.178
-31.713
-33.08
-34.283
-35.324
-36.205
-36.931
-37.507
-37.938
-38.231
-38.393
-38.432
-38.356
-38.173
-37.894
-37.526
-37.079
-36.563
-35.988
-35.362
-34.696
-33.999
-33.282
-32.553
-31.823
-31.101
-30.396
-29.717
-29.072
-28.471
-27.919
-27.425
-26.994
-26.633
-26.347
-26.141
-26.019
-25.983
-26.037
-26.182
-26.419
-26.747
-27.165
-27.672
-28.265
-28.941
-29.695
-30.525
-31.424
-32.388
-33.412
-34.488
-35.612
-36.774
-37.97
-39.191
-40.429
-41.677
-42.928
-44.172
-45.402
-46.612
-47.792
-48.936
-50.034
-51.081
-52.067
-52.988
-53.835
-54.603
-55.285
-55.876
-56.371
-56.768
-57.061
-57.248
-57.326
-57.293
-57.147
-56.887
-56.512
-56.02
-55.412
-54.687
-53.848
-52.896
-51.834
-50.663
-49.386
-48.008
-46.533
-44.965
-43.31
-41.571
-39.755
-37.872
-35.932
-33.943
-31.915
-29.86
-27.787
-25.71
-23.637
-21.576
-19.535
-17.521
-15.543
-13.611
-11.738
-9.932
-8.206
-6.569
-5.036
-3.618
-2.322
-1.15
-0.104
0.809
1.577
2.184
2.618
2.873
2.943
2.822
2.509
2.016
1.364
0.591
-0.268
-1.193
-2.168
-3.183
-4.222
-5.252
-6.236
-7.149
-7.975
-8.703
-9.319
-9.801
-10.157
-10.451
-10.771
-11.221
-11.872
-12.743
-13.86
-15.292
-17.115
-19.436
-22.349
-25.857
-30.008
-34.909
-40.549
-46.829
-53.437
-59.752
-65.238
-69.527
-72.206
-73.018
-71.997
-69.342
-65.845
-62.751
-60.943
-61.118
-63.859
-69.092
-76.179
-83.912
-89.914
-91.487
-86.54
-72.839
-48.284
-11.805
36.888
95.457
158.539
221.575
281.463
338.552
395.985
452.177
500.254
528.158
521.335
473.903
390.734
284.056
172.631
72.561
-8.316
-65.632
-101.678
-123.38
-134.749
-139.977
-140.609
-134.284
-121.03
-102.404
-81.366
-62.183
-46.995
-36.213
-29.448
-25.531
-23.602
-22.695
-21.424
-19.003
-15.16
-9.98
-3.959
2.452
8.927
14.992
20.076
23.868
26.278
27.407
27.539
26.897
25.667
24.076
22.364
20.748
19.385
18.371
17.747
17.54
17.781
18.489
19.671
21.311
23.381
25.842
28.648
31.759
35.122
38.679
42.368
46.119
49.88
53.616
57.301
60.922
64.469
67.935
71.317
74.624
77.861
81.034
84.146
87.195
90.182
93.112
95.99
98.824
101.616
104.364
107.066
109.716
112.311
114.844
117.305
119.684
121.971
124.158
126.239
128.207
130.056
131.778
133.366
134.813
136.112
137.255
138.234
139.042
139.669
140.111
140.36
140.412
140.262
139.906
139.34
138.563
137.572
136.367
134.947
133.312
131.464
129.405
127.138
124.668
121.999
119.138
116.091
112.869
109.479
105.934
102.245
98.424
94.484
90.441
86.31
82.105
77.845
73.544
69.221
64.893
60.577
56.291
52.051
47.873
43.774
39.768
35.869
32.089
28.443
24.94
21.591
18.404
15.39
12.553
9.899
7.433
5.157
3.073
1.18
-0.523
-2.04
-3.375
-4.534
-5.524
-6.354
-7.033
-7.572
-7.982
-8.276
-8.466
-8.566
-8.59
-8.55
-8.462
-8.339
-8.194
-8.041
-7.891
-7.756
-7.646
-7.574
-7.546
-7.572
-7.66
-7.816
-8.045
-8.352
-8.74
-9.212
-9.768
-10.408
-11.132
-11.936
-12.818
-13.774
-14.797
-15.884
-17.026
-18.219
-19.453
-20.721
-22.015
-23.326
-24.645
-25.965
-27.277
-28.572
-29.844
-31.085
-32.289
-33.452
-34.568
-35.632
-36.642
-37.595
-38.488
-39.321
-40.094
-40.805
-41.457
-42.052
-42.591
-43.079
-43.52
-43.916
-44.273
-44.596
-44.889
-45.158
-45.405
-45.635
-45.853
-46.064
-46.27
-46.476
-46.684
-46.898
-47.119
-47.35
-47.59
-47.84
-48.097
-48.361
-48.628
-48.897
-49.162
-49.421
-49.666
-49.894
-50.099
-50.275
-50.416
-50.515
-50.565
-50.558
-50.489
-50.351
-50.139
-49.847
-49.47
-49.007
-48.457
-47.822
-47.103
-46.302
-45.421
-44.464
-43.437
-42.343
-41.187
-39.969
-38.697
-37.38
-36.028
-34.653
-33.267
-31.882
-30.51
-29.166
-27.865
-26.616
-25.426
-24.302
-23.258
-22.312
-21.492
-20.82
-20.308
-19.968
-19.809
-19.831
-20.031
-20.393
-20.882
-21.473
-22.144
-22.883
-23.688
-24.547
-25.432
-26.312
-27.154
-27.937
-28.654
-29.291
-29.842
-30.345
-30.853
-31.449
-32.233
-33.254
-34.557
-36.219
-38.301
-40.873
-44.022
-47.772
-52.174
-57.361
-63.326
-69.949
-76.981
-83.936
-90.363
-95.984
-100.389
-103.104
-104.054
-103.413
-101.775
-100.246
-99.543
-100.2
-102.9
-108.026
-115.464
-123.379
-129.133
-131.128
-127.442
-118.926
-106.192
-84.01
-49.961
-1.146
64.301
136.622
208.845
276.105
332.167
380.521
420.971
447.504
455.004
433.291
377.548
292.452
187.065
77.821
-18.389
-91.122
-135.646
-156.151
-163.721
-167.478
-172.115
-177.322
-178.029
-171.239
-158.488
-143.293
-129.719
-119.832
-113.263
-109.014
-106.297
-104.61
-103.219
-101.134
-97.726
-92.888
-86.968
-80.541
-73.997
-67.585
-61.678
-56.732
-53.033
-50.661
-49.498
-49.277
-49.784
-50.864
-52.338
-54.016
-55.72
-57.266
-58.521
-59.421
-59.912
-59.958
-59.537
-58.622
-57.207
-55.319
-52.998
-50.29
-47.243
-43.895
-40.289
-36.476
-32.515
-28.472
-24.395
-20.316
-16.256
-12.229
-8.248
-4.326
-0.465
3.343
7.105
10.823
14.496
18.118
21.684
25.195
28.651
32.051
35.389
38.656
41.844
44.944
47.945
50.837
53.606
56.236
58.717
61.037
63.188
65.163
66.953
68.551
69.951
71.148
72.136
72.911
73.468
73.803
73.914
73.798
73.455
72.886
72.089
71.069
69.827
68.367
66.695
64.816
62.735
60.461
58.001
55.365
52.561
49.601
46.493
43.251
39.884
36.406
32.829
29.165
25.427
21.628
17.78
13.896
9.99
6.073
2.157
-1.745
-5.622
-9.462
-13.255
-16.989
-20.655
-24.244
-27.745
-31.152
-34.456
-37.651
-40.731
-43.691
-46.527
-49.234
-51.81
-54.252
-56.56
-58.733
-60.77
-62.673
-64.443
-66.081
-67.592
-68.978
-70.243
-71.392
-72.429
-73.36
-74.19
-74.924
-75.568
-76.128
-76.61
-77.018
-77.36
-77.64
-77.864
-78.039
-78.169
-78.26
-78.317
-78.344
-78.346
-78.326
-78.288
-78.235
-78.171
-78.098
-78.018
-77.934
-77.848
-77.761
-77.674
-77.588
-77.504
-77.42
-77.338
-77.256
-77.174
-77.09
-77.005
-76.916
-76.825
-76.729
-76.629
-76.523
-76.412
-76.295
-76.171
-76.039
-75.901
-75.756
-75.604
-75.447
-75.286
-75.121
-74.955
-74.79
-74.626
-74.465
-74.309
-74.158
-74.014
-73.877
-73.749
-73.631
-73.523
-73.426
-73.341
-73.269
-73.211
-73.166
-73.135
-73.115
-73.106
-73.105
-73.111
-73.121
-73.131
-73.14
-73.143
-73.139
-73.124
-73.094
-73.044
-72.971
-72.87
-72.735
-72.562
-72.346
-72.081
-71.764
-71.392
-70.964
-70.48
-69.942
-69.35
-68.706
-68.011
-67.267
-66.476
-65.637
-64.75
-63.814
-62.832
-61.808
-60.749
-59.663
-58.557
-57.442
-56.324
-55.211
-54.109
-53.023
-51.956
-50.912
-49.897
-48.923
-48.011
-47.181
-46.45
-45.826
-45.311
-44.9
-44.585
-44.353
-44.178
-44.037
-43.904
-43.754
-43.573
-43.354
-43.098
-42.793
-42.405
-41.909
-41.283
-40.534
-39.697
-38.807
-37.89
-36.98
-36.122
-35.383
-34.857
-34.637
-34.813
-35.45
-36.553
-38.169
-40.395
-43.227
-46.588
-50.227
-53.674
-56.492
-58.384
-59.118
-58.539
-56.754
-53.981
-50.728
-47.969
-46.688
-47.732
-51.497
-57.661
-65.165
-72.729
-78.809
-81.037
-76.981
-64.289
-40.984
-7.825
33.108
81.123
133.977
190.588
249.817
303.858
346.255
370.99
372.154
353.04
317.562
269.99
217.004
159.981
100.933
43.209
-11.244
-57.89
-93.311
-116.985
-128.846
-130.35
-124.047
-111.834
-96.092
-79.989
-65.576
-53.978
-45.887
-41.069
-38.878
-38.867
-40.119
-41.219
-41.41
-40.347
-37.893
-34.434
-30.342
-25.836
-21.354
-17.425
-14.314
-12.145
-10.902
-10.365
-10.376
-10.81
-11.477
-12.204
-12.84
-13.274
-13.459
-13.376
-13.002
-12.316
-11.302
-9.955
-8.292
-6.328
-4.084
-1.596
1.108
3.983
6.978
10.049
13.141
16.214
19.243
22.207
25.092
27.891
30.6
33.214
35.743
38.19
40.56
42.857
45.084
47.245
49.349
51.404
53.421
55.407
57.367
59.304
61.22
63.115
64.988
66.836
68.654
70.436
72.179
73.881
75.538
77.148
78.706
80.207
81.647
83.021
84.324
85.549
86.689
87.738
88.689
89.538
90.278
90.904
91.412
91.797
92.054
92.18
92.171
92.024
91.737
91.307
90.734
90.017
89.159
88.161
87.025
85.757
84.36
82.84
81.205
79.461
77.618
75.683
73.666
71.577
69.427
67.227
64.987
62.717
60.43
58.135
55.844
53.565
51.308
49.084
46.899
44.764
42.685
40.669
38.723
36.852
35.061
33.354
31.734
30.202
28.761
27.411
26.151
24.981
23.898
22.9
21.984
21.146
20.381
19.684
19.05
18.473
17.949
17.472
17.037
16.64
16.276
15.943
15.636
15.353
15.093
14.853
14.632
14.43
14.246
14.079
13.932
13.805
13.699
13.616
13.558
13.529
13.529
13.561
13.629
13.733
13.878
14.064
14.296
14.574
14.901
15.278
15.709
16.192
16.729
17.319
17.961
18.652
19.388
20.166
20.981
21.827
22.698
23.587
24.487
25.39
26.289
27.176
28.042
28.878
29.677
30.431
31.131
31.771
32.342
32.84
33.259
33.595
33.843
34
34.064
34.032
33.904
33.678
33.356
32.936
32.421
31.814
31.118
30.339
29.482
28.552
27.558
26.508
25.41
24.273
23.105
21.91
20.696
19.471
18.242
17.013
15.791
14.582
13.393
12.234
11.112
10.033
8.998
8.009
7.065
6.168
5.318
4.511
3.747
3.024
2.344
1.714
1.133
0.596
0.094
-0.393
-0.881
-1.38
-1.899
-2.445
-3.016
-3.611
-4.218
-4.811
-5.375
-5.896
-6.364
-6.784
-7.142
-7.423
-7.612
-7.678
-7.599
-7.358
-6.953
-6.402
-5.748
-5.038
-4.328
-3.68
-3.157
-2.845
-2.828
-3.177
-3.981
-5.288
-7.18
-9.827
-13.264
-17.401
-22.027
-26.67
-30.884
-34.409
-36.845
-37.697
-36.941
-34.804
-31.894
-29.528
-28.715
-30.027
-34.281
-42.001
-52.664
-65.134
-77.527
-86.928
-90.707
-86.489
-71.426
-43.262
-2.567
47.826
104.944
165.75
230.709
302.216
377.263
447.084
497.511
513.783
489.638
430.115
349.547
263.127
180.808
106.331
37.425
-26.812
-83.24
-128.316
-158.545
-172.793
-173.334
-163.513
-146.412
-125.387
-104.117
-85.084
-69.747
-58.846
-51.921
-48.039
-46.503
-46.146
-45.316
-43.128
-39.256
-33.678
-26.952
-19.647
-12.112
-4.899
1.331
6.249
9.72
11.774
12.692
12.692
11.924
10.619
8.994
7.232
5.53
4.014
2.733
1.749
1.103
0.816
0.927
1.442
2.337
3.585
5.149
6.993
9.088
11.394
13.862
16.44
19.064
21.691
24.297
26.862
29.381
31.849
34.259
36.619
38.946
41.254
43.552
45.846
48.136
50.425
52.719
55.026
57.35
59.695
62.056
64.429
66.809
69.19
71.564
73.916
76.233
78.502
80.71
82.849
84.906
86.872
88.734
90.481
92.102
93.586
94.921
96.094
97.093
97.907
98.526
98.94
99.141
99.122
98.876
98.399
97.687
96.74
95.555
94.133
92.475
90.585
88.467
86.126
83.568
80.803
77.837
74.683
71.35
67.85
64.197
60.405
56.487
52.458
48.336
44.136
39.876
35.571
31.242
26.904
22.577
18.278
14.024
9.832
5.719
1.699
-2.214
-6.005
-9.662
-13.175
-16.533
-19.727
-22.751
-25.597
-28.26
-30.736
-33.024
-35.12
-37.024
-38.738
-40.262
-41.6
-42.754
-43.73
-44.534
-45.172
-45.651
-45.98
-46.169
-46.225
-46.161
-45.986
-45.711
-45.347
-44.904
-44.394
-43.828
-43.215
-42.567
-41.892
-41.202
-40.504
-39.808
-39.122
-38.453
-37.809
-37.196
-36.619
-36.084
-35.596
-35.159
-34.777
-34.453
-34.191
-33.992
-33.858
-33.789
-33.786
-33.848
-33.973
-34.161
-34.408
-34.713
-35.072
-35.482
-35.941
-36.445
-36.992
-37.576
-38.196
-38.847
-39.525
-40.226
-40.945
-41.678
-42.42
-43.167
-43.915
-44.658
-45.392
-46.113
-46.816
-47.496
-48.147
-48.766
-49.346
-49.883
-50.373
-50.811
-51.194
-51.519
-51.784
-51.988
-52.129
-52.206
-52.218
-52.164
-52.042
-51.853
-51.595
-51.268
-50.873
-50.41
-49.882
-49.295
-48.653
-47.962
-47.23
-46.464
-45.67
-44.855
-44.024
-43.183
-42.335
-41.486
-40.643
-39.813
-39.001
-38.215
-37.458
-36.739
-36.062
-35.428
-34.839
-34.298
-33.804
-33.365
-32.989
-32.69
-32.488
-32.4
-32.437
-32.612
-32.935
-33.407
-34.025
-34.776
-35.63
-36.564
-37.548
-38.548
-39.539
-40.481
-41.334
-42.057
-42.6
-42.925
-43.015
-42.857
-42.434
-41.733
-40.76
-39.568
-38.254
-36.931
-35.721
-34.723
-34.075
-34.009
-34.655
-36.012
-38.003
-40.326
-42.638
-44.756
-46.379
-47.052
-46.672
-45.47
-43.885
-43.001
-44.133
-48.03
-55.402
-67.222
-82.494
-99.478
-117.569
-133.896
-147.61
-158.733
-160.952
-149.363
-118.838
-65.498
3.132
79.054
156.201
230.691
306.903
384.935
456.49
507.886
522.676
493.522
426.635
338.011
244.808
158.239
81.958
13.479
-48.071
-100.283
-140.247
-164.846
-173.721
-169.551
-155.804
-136.144
-114.483
-94.305
-77.818
-66.217
-59.75
-57.728
-59.122
-62.843
-67.335
-70.949
-72.803
-72.557
-70.286
-66.503
-61.712
-56.335
-50.986
-46.29
-42.557
-39.898
-38.249
-37.371
-37.094
-37.293
-37.782
-38.37
-38.905
-39.244
-39.313
-39.085
-38.518
-37.576
-36.239
-34.489
-32.336
-29.805
-26.924
-23.728
-20.254
-16.534
-12.614
-8.543
-4.374
-0.17
4.023
8.172
12.248
16.232
20.11
23.868
27.502
31.019
34.422
37.714
40.895
43.962
46.916
49.76
52.498
55.137
57.68
60.126
62.476
64.727
66.878
68.925
70.864
72.685
74.384
75.955
77.395
78.702
79.873
80.906
81.796
82.543
83.144
83.596
83.896
84.041
84.026
83.85
83.511
83.007
82.336
81.498
80.493
79.32
77.981
76.477
74.81
72.982
70.995
68.853
66.562
64.126
61.552
58.847
56.018
53.074
50.024
46.877
43.645
40.336
36.961
33.533
30.061
26.559
23.036
19.507
15.982
12.474
8.995
5.558
2.173
-1.148
-4.395
-7.557
-10.627
-13.594
-16.451
-19.192
-21.811
-24.301
-26.659
-28.882
-30.967
-32.913
-34.719
-36.387
-37.917
-39.313
-40.578
-41.715
-42.73
-43.627
-44.411
-45.09
-45.67
-46.157
-46.558
-46.881
-47.134
-47.323
-47.456
-47.541
-47.585
-47.595
-47.576
-47.537
-47.481
-47.414
-47.34
-47.264
-47.189
-47.117
-47.05
-46.991
-46.94
-46.898
-46.862
-46.834
-46.811
-46.791
-46.772
-46.751
-46.725
-46.692
-46.648
-46.59
-46.515
-46.42
-46.302
-46.159
-45.988
-45.786
-45.551
-45.282
-44.976
-44.635
-44.257
-43.842
-43.391
-42.904
-42.385
-41.834
-41.253
-40.646
-40.015
-39.362
-38.692
-38.009
-37.317
-36.62
-35.923
-35.23
-34.548
-33.88
-33.231
-32.605
-32.005
-31.436
-30.899
-30.399
-29.936
-29.513
-29.129
-28.786
-28.484
-28.224
-28.003
-27.82
-27.672
-27.557
-27.472
-27.415
-27.381
-27.367
-27.37
-27.39
-27.427
-27.479
-27.544
-27.623
-27.713
-27.815
-27.926
-28.041
-28.155
-28.264
-28.367
-28.463
-28.555
-28.643
-28.728
-28.812
-28.9
-28.996
-29.1
-29.209
-29.321
-29.441
-29.579
-29.754
-29.981
-30.269
-30.626
-31.059
-31.565
-32.139
-32.76
-33.394
-34.008
-34.579
-35.091
-35.539
-35.913
-36.186
-36.331
-36.323
-36.149
-35.805
-35.283
-34.584
-33.75
-32.846
-31.972
-31.244
-30.739
-30.525
-30.691
-31.315
-32.489
-34.321
-36.853
-40.14
-44.3
-49.325
-55.127
-61.491
-67.916
-73.897
-79.071
-82.959
-85.081
-85.362
-83.924
-81.284
-78.645
-76.972
-76.87
-79.155
-84.322
-91.951
-101.126
-110.037
-115.761
-115.887
-108.291
-90.289
-59.917
-16.6
38.221
100.59
165.805
230.451
294.33
358.31
419.58
471.2
500.805
495.722
452.497
377.528
285.278
191.765
107.069
34.003
-29.1
-82.653
-125.382
-155.432
-170.743
-172.232
-163.157
-146.574
-126.223
-106.193
-88.901
-75.759
-67.549
-63.714
-63.218
-65.242
-68.415
-70.937
-71.808
-70.57
-67.138
-62.074
-55.961
-49.191
-42.36
-36.147
-30.911
-26.824
-23.888
-21.866
-20.567
-19.872
-19.607
-19.603
-19.731
-19.863
-19.883
-19.727
-19.336
-18.655
-17.66
-16.33
-14.651
-12.631
-10.3
-7.695
-4.855
-1.818
1.39
4.738
8.187
11.688
15.184
18.632
22.005
25.284
28.457
31.515
34.451
37.272
39.995
42.636
45.207
47.714
50.161
52.551
54.894
57.2
59.477
61.73
63.961
66.169
68.356
70.52
72.656
74.758
76.814
78.816
80.756
82.627
84.422
86.133
87.75
89.266
90.672
91.958
93.115
94.131
94.996
95.698
96.227
96.575
96.732
96.688
96.436
95.97
95.284
94.374
93.235
91.866
90.265
88.432
86.371
84.085
81.578
78.856
75.928
72.802
69.49
66.001
62.349
58.546
54.606
50.545
46.377
42.121
37.791
33.406
28.984
24.543
20.101
15.677
11.289
6.955
2.693
-1.482
-5.554
-9.506
-13.327
-17.002
-20.521
-23.872
-27.047
-30.039
-32.841
-35.448
-37.858
-40.068
-42.078
-43.888
-45.499
-46.915
-48.138
-49.172
-50.024
-50.7
-51.205
-51.549
-51.739
-51.783
-51.692
-51.475
-51.141
-50.702
-50.168
-49.549
-48.856
-48.098
-47.287
-46.432
-45.544
-44.631
-43.703
-42.767
-41.832
-40.904
-39.991
-39.098
-38.231
-37.394
-36.592
-35.83
-35.11
-34.436
-33.81
-33.236
-32.714
-32.247
-31.835
-31.48
-31.181
-30.938
-30.752
-30.622
-30.547
-30.525
-30.555
-30.635
-30.763
-30.934
-31.146
-31.394
-31.673
-31.98
-32.309
-32.655
-33.013
-33.377
-33.742
-34.102
-34.451
-34.783
-35.09
-35.367
-35.605
-35.801
-35.946
-36.034
-36.059
-36.015
-35.896
-35.698
-35.415
-35.043
-34.576
-34.012
-33.346
-32.578
-31.705
-30.726
-29.643
-28.456
-27.173
-25.798
-24.338
-22.801
-21.194
-19.528
-17.811
-16.053
-14.261
-12.444
-10.611
-8.773
-6.946
-5.144
-3.379
-1.666
-0.019
1.548
3.021
4.391
5.656
6.809
7.837
8.726
9.452
10
10.358
10.519
10.474
10.23
9.796
9.194
8.466
7.641
6.746
5.797
4.802
3.785
2.78
1.82
0.942
0.171
-0.478
-0.979
-1.316
-1.521
-1.64
-1.755
-1.969
-2.332
-2.893
-3.723
-4.879
-6.458
-8.572
-11.268
-14.619
-18.728
-23.565
-29.046
-34.965
-40.839
-46.208
-50.672
-53.697
-54.929
-54.41
-52.373
-49.441
-46.659
-44.795
-44.544
-46.791
-51.776
-58.856
-66.751
-73.335
-76.052
-72.753
-61.237
-39.048
-4.794
41.414
98.113
162.436
230.787
299.338
363.554
418.183
458.628
481.803
486.089
471.137
437.629
387.458
323.952
251.821
176.176
101.43
31.382
-30.345
-80.758
-118.265
-142.688
-155.23
-157.967
-152.887
-142.066
-128.232
-114.13
-101.571
-91.466
-83.889
-78.362
-74.498
-71.88
-69.57
-66.429
-61.83
-55.667
-48.242
-40.121
-31.728
-23.354
-15.442
-8.538
-2.975
1.126
3.83
5.375
5.97
5.754
4.906
3.636
2.135
0.608
-0.767
-1.898
-2.713
-3.152
-3.186
-2.777
-1.904
-0.585
1.141
3.233
5.643
8.335
11.277
14.42
17.708
21.076
24.459
27.812
31.112
34.339
37.483
40.535
43.488
46.354
49.149
51.886
54.568
57.198
59.77
62.286
64.751
67.167
69.533
71.847
74.102
76.291
78.407
80.438
82.374
84.198
85.897
87.455
88.864
90.112
91.19
92.09
92.804
93.323
93.644
93.759
93.663
93.349
92.815
92.055
91.07
89.857
88.419
86.755
84.871
82.77
80.46
77.946
75.237
72.342
69.271
66.035
62.648
59.121
55.469
51.705
47.845
43.904
39.897
35.84
31.748
27.637
23.521
19.415
15.333
11.289
7.295
3.364
-0.491
-4.261
-7.933
-11.499
-14.951
-18.28
-21.481
-24.549
-27.479
-30.267
-32.913
-35.415
-37.773
-39.987
-42.059
-43.992
-45.788
-47.452
-48.989
-50.402
-51.699
-52.884
-53.963
-54.944
-55.831
-56.632
-57.353
-58
-58.578
-59.095
-59.555
-59.963
-60.326
-60.646
-60.93
-61.179
-61.399
-61.593
-61.762
-61.91
-62.039
-62.15
-62.246
-62.326
-62.393
-62.448
-62.49
-62.522
-62.542
-62.553
-62.553
-62.544
-62.527
-62.501
-62.469
-62.429
-62.384
-62.334
-62.28
-62.224
-62.168
-62.113
-62.06
-62.013
-61.972
-61.94
-61.919
-61.911
-61.916
-61.936
-61.973
-62.027
-62.1
-62.192
-62.304
-62.435
-62.586
-62.757
-62.946
-63.153
-63.374
-63.607
-63.851
-64.101
-64.356
-64.609
-64.857
-65.097
-65.324
-65.534
-65.721
-65.882
-66.01
-66.101
-66.151
-66.154
-66.105
-66
-65.835
-65.609
-65.321
-64.972
-64.561
-64.091
-63.564
-62.981
-62.346
-61.661
-60.924
-60.135
-59.298
-58.416
-57.497
-56.546
-55.572
-54.583
-53.591
-52.604
-51.632
-50.681
-49.751
-48.846
-47.978
-47.156
-46.403
-45.736
-45.168
-44.716
-44.39
-44.19
-44.112
-44.141
-44.244
-44.402
-44.599
-44.82
-45.064
-45.318
-45.563
-45.793
-45.99
-46.136
-46.223
-46.235
-46.169
-46.074
-46.007
-46.037
-46.255
-46.707
-47.438
-48.533
-50.048
-52.072
-54.696
-57.93
-61.832
-66.509
-71.942
-78.058
-84.613
-91.053
-96.862
-101.635
-104.877
-106.32
-106.021
-104.14
-101.416
-99.128
-98.37
-100.206
-105.485
-114.063
-125.144
-137.637
-149.226
-156.76
-157.193
-147.163
-124.931
-91.667
-48.945
2.377
63.268
135.532
217.264
299.935
368.364
407.964
411.218
379.936
326.178
263.124
199.007
137.355
76.419
15.01
-44.394
-97.224
-138.232
-164.757
-177.049
-176.903
-166.955
-149.467
-126.714
-101.786
-77.612
-56.056
-38.06
-23.678
-12.432
-3.875
2.609
8.202
14.16
21.14
29.32
38.482
48.16
58.011
67.734
76.847
84.841
91.446
96.598
100.424
103.166
105.008
106.101
106.622
106.762
106.708
106.594
106.487
106.41
106.382
106.424
106.563
106.816
107.173
107.61
108.1
108.615
109.135
109.631
110.072
110.419
110.629
110.674
110.547
110.249
109.789
109.182
108.439
107.578
106.629
105.622
104.579
103.524
102.472
101.441
100.451
99.526
98.683
97.938
97.299
96.773
96.366
96.08
95.913
95.861
95.916
96.07
96.316
96.646
97.053
97.526
98.055
98.626
99.227
99.845
100.463
101.064
101.631
102.145
102.589
102.946
103.199
103.33
103.323
103.163
102.833
102.32
101.611
100.692
99.553
98.183
96.573
94.719
92.613
90.253
87.637
84.766
81.641
78.265
74.643
70.782
66.688
62.37
57.84
53.109
48.19
43.096
37.845
32.453
26.938
21.319
15.614
9.844
4.029
-1.812
-7.657
-13.485
-19.277
-25.012
-30.669
-36.228
-41.672
-46.98
-52.135
-57.121
-61.923
-66.525
-70.916
-75.083
-79.015
-82.704
-86.141
-89.319
-92.232
-94.876
-97.248
-99.347
-101.171
-102.722
-104.001
-105.013
-105.761
-106.251
-106.491
-106.487
-106.249
-105.787
-105.11
-104.231
-103.161
-101.914
-100.503
-98.942
-97.245
-95.428
-93.504
-91.489
-89.397
-87.242
-85.037
-82.798
-80.536
-78.264
-75.995
-73.739
-71.508
-69.312
-67.16
-65.061
-63.024
-61.056
-59.162
-57.349
-55.621
-53.982
-52.434
-50.979
-49.617
-48.347
-47.168
-46.077
-45.071
-44.146
-43.298
-42.519
-41.806
-41.149
-40.542
-39.977
-39.446
-38.941
-38.453
-37.974
-37.496
-37.012
-36.513
-35.994
-35.449
-34.87
-34.253
-33.592
-32.882
-32.119
-31.298
-30.418
-29.473
-28.465
-27.394
-26.263
-25.075
-23.835
-22.55
-21.226
-19.87
-18.49
-17.091
-15.679
-14.258
-12.835
-11.416
-10.009
-8.625
-7.273
-5.962
-4.703
-3.503
-2.369
-1.306
-0.317
0.597
1.433
2.186
2.846
3.392
3.809
4.087
4.222
4.214
4.069
3.798
3.416
2.954
2.445
1.919
1.403
0.918
0.472
0.081
-0.223
-0.402
-0.416
-0.25
0.079
0.557
1.168
1.901
2.741
3.618
4.424
5.069
5.446
5.468
5.108
4.273
2.826
0.741
-1.932
-4.985
-7.978
-10.553
-12.469
-13.367
-12.999
-11.386
-8.682
-5.558
-3.099
-2.159
-3.54
-7.981
-15.508
-25.425
-36.6
-47.042
-54.157
-55.402
-47.926
-29.172
1.031
40.636
87.312
138.937
195.931
260.032
328.852
394.883
445.553
468.257
457.173
415.36
354.566
287.59
223.016
164.02
107.88
52.684
-0.024
-46.715
-82.772
-106.198
-118.107
-120.49
-115.306
-104.171
-88.745
-71.531
-55.212
-41.378
-30.498
-22.372
-16.684
-13.24
-11.701
-11.163
-10.449
-8.882
-6.343
-3.067
0.561
4.286
7.949
11.231
13.702
15.133
15.499
14.931
13.687
11.984
9.976
7.834
5.752
3.868
2.285
1.062
0.202
-0.288
-0.396
-0.125
0.524
1.539
2.888
4.537
6.453
8.586
10.889
13.317
15.812
18.338
20.868
23.383
25.876
28.342
30.778
33.185
35.568
37.929
40.27
42.591
44.887
47.16
49.41
51.636
53.842
56.024
58.178
60.295
62.369
64.387
66.34
68.215
69.998
71.675
73.236
74.672
75.973
77.132
78.139
78.985
79.665
80.169
80.492
80.625
80.562
80.297
79.826
79.145
78.254
77.151
75.837
74.315
72.588
70.661
68.54
66.231
63.741
61.08
58.255
55.279
52.161
48.913
45.548
42.078
38.517
34.878
31.174
27.42
23.628
19.811
15.984
12.158
8.348
4.565
0.822
-2.869
-6.495
-10.046
-13.511
-16.881
-20.147
-23.303
-26.343
-29.262
-32.055
-34.721
-37.258
-39.664
-41.94
-44.087
-46.105
-47.998
-49.769
-51.421
-52.958
-54.386
-55.708
-56.931
-58.058
-59.095
-60.047
-60.919
-61.715
-62.442
-63.104
-63.707
-64.255
-64.753
-65.208
-65.623
-66.003
-66.352
-66.672
-66.968
-67.241
-67.494
-67.729
-67.946
-68.147
-68.333
-68.505
-68.664
-68.808
-68.939
-69.056
-69.159
-69.249
-69.326
-69.39
-69.442
-69.484
-69.518
-69.546
-69.569
-69.59
-69.612
-69.636
-69.664
-69.699
-69.742
-69.794
-69.859
-69.937
-70.031
-70.143
-70.273
-70.425
-70.599
-70.795
-71.015
-71.259
-71.525
-71.813
-72.123
-72.453
-72.803
-73.17
-73.552
-73.946
-74.349
-74.757
-75.164
-75.565
-75.953
-76.323
-76.666
-76.977
-77.248
-77.474
-77.648
-77.765
-77.82
-77.807
-77.722
-77.561
-77.318
-76.992
-76.578
-76.075
-75.482
-74.8
-74.031
-73.182
-72.256
-71.261
-70.203
-69.089
-67.928
-66.727
-65.489
-64.221
-62.928
-61.618
-60.302
-58.991
-57.695
-56.426
-55.197
-54.019
-52.901
-51.852
-50.876
-49.975
-49.157
-48.428
-47.803
-47.306
-46.953
-46.756
-46.724
-46.857
-47.152
-47.599
-48.174
-48.844
-49.578
-50.345
-51.124
-51.897
-52.636
-53.318
-53.914
-54.378
-54.667
-54.761
-54.659
-54.374
-53.941
-53.39
-52.754
-52.114
-51.564
-51.209
-51.136
-51.417
-52.1
-53.268
-55.083
-57.626
-60.863
-64.601
-68.465
-72.131
-75.37
-77.794
-78.878
-78.415
-76.481
-73.658
-71.057
-69.29
-68.888
-70.986
-76.358
-85.082
-95.742
-104.523
-108.669
-107.499
-101.919
-94.743
-83.812
-63.502
-28.357
28.569
106.651
199.723
300.808
397.525
478.638
535.079
558.425
545.676
498.508
423.112
328.225
224.608
123.855
33.338
-40.765
-96.868
-139.334
-170.484
-193.472
-209.497
-215.082
-209.301
-192.534
-166.529
-136.406
-106.412
-78.866
-55.292
-35.976
-20.741
-10.052
-4.423
-3.201
-5.107
-8.856
-13.013
-16.788
-20.052
-22.278
-22.686
-21.157
-17.986
-13.781
-9.591
-5.952
-2.885
-0.551
0.861
1.332
0.939
0.003
-0.896
-1.434
-1.536
-1.153
-0.321
0.951
2.699
4.867
7.334
10.019
12.878
15.887
19.06
22.372
25.763
29.186
32.6
35.982
39.329
42.636
45.901
49.128
52.321
55.488
58.631
61.75
64.838
67.892
70.904
73.874
76.804
79.695
82.549
85.365
88.134
90.851
93.503
96.079
98.564
100.945
103.21
105.35
107.354
109.213
110.919
112.464
113.84
115.039
116.051
116.87
117.488
117.898
118.097
118.081
117.848
117.396
116.726
115.839
114.737
113.422
111.899
110.17
108.24
106.117
103.805
101.312
98.648
95.822
92.842
89.723
86.474
83.11
79.644
76.089
72.461
68.774
65.042
61.28
57.503
53.725
49.96
46.222
42.525
38.88
35.3
31.794
28.374
25.048
21.824
18.709
15.71
12.832
10.08
7.46
4.973
2.624
0.415
-1.654
-3.581
-5.368
-7.015
-8.525
-9.901
-11.147
-12.268
-13.269
-14.155
-14.934
-15.612
-16.195
-16.692
-17.11
-17.455
-17.736
-17.958
-18.129
-18.255
-18.341
-18.393
-18.415
-18.411
-18.386
-18.343
-18.286
-18.218
-18.142
-18.062
-17.981
-17.901
-17.825
-17.755
-17.691
-17.637
-17.592
-17.558
-17.534
-17.522
-17.519
-17.527
-17.544
-17.569
-17.6
-17.637
-17.677
-17.718
-17.76
-17.8
-17.838
-17.873
-17.905
-17.935
-17.961
-17.986
-18.01
-18.032
-18.055
-18.077
-18.101
-18.125
-18.148
-18.172
-18.194
-18.215
-18.235
-18.253
-18.267
-18.277
-18.282
-18.282
-18.276
-18.261
-18.238
-18.205
-18.162
-18.11
-18.046
-17.972
-17.885
-17.786
-17.674
-17.548
-17.407
-17.248
-17.068
-16.867
-16.644
-16.395
-16.119
-15.816
-15.487
-15.134
-14.761
-14.372
-13.97
-13.56
-13.146
-12.734
-12.328
-11.929
-11.537
-11.156
-10.789
-10.445
-10.129
-9.843
-9.593
-9.384
-9.221
-9.111
-9.053
-9.043
-9.082
-9.173
-9.33
-9.575
-9.922
-10.38
-10.959
-11.663
-12.492
-13.441
-14.49
-15.599
-16.736
-17.87
-18.98
-20.06
-21.08
-22.003
-22.794
-23.406
-23.814
-24.003
-23.953
-23.669
-23.182
-22.544
-21.839
-21.167
-20.619
-20.303
-20.323
-20.776
-21.791
-23.466
-25.915
-29.325
-33.733
-39.052
-45.121
-51.538
-57.873
-63.835
-68.921
-72.493
-74.399
-74.758
-74.025
-73.353
-73.627
-75.309
-79.272
-86.282
-96.074
-107.71
-119.412
-128.244
-131.505
-126.855
-111.262
-81.653
-38.087
16.576
79.516
146.659
218.415
300.19
390.088
480.53
556.628
595.592
585.831
528.787
437.098
333.911
235.238
148.17
73.349
5.668
-54.807
-104.679
-141.269
-161.637
-166.706
-160.524
-146.431
-128.196
-110.061
-94.485
-82.889
-76.125
-73.577
-73.987
-76.412
-79.434
-81.198
-80.783
-77.8
-72.196
-64.681
-55.993
-46.654
-37.406
-29.005
-21.834
-16.11
-11.865
-8.871
-6.968
-6.022
-5.83
-6.221
-7.026
-8.083
-9.255
-10.393
-11.364
-12.065
-12.412
-12.356
-11.874
-10.944
-9.572
-7.795
-5.643
-3.153
-0.362
2.712
6.03
9.539
13.182
16.886
20.598
24.288
27.928
31.499
34.993
38.404
41.738
45.015
48.248
51.44
54.593
57.703
60.769
63.796
66.786
69.741
72.66
75.538
78.37
81.15
83.869
86.516
89.076
91.532
93.871
96.082
98.154
100.076
101.838
103.43
104.843
106.068
107.098
107.922
108.533
108.923
109.086
109.016
108.711
108.166
107.38
106.354
105.087
103.582
101.843
99.872
97.677
95.263
92.639
89.813
86.796
83.598
80.233
76.712
73.05
69.26
65.358
61.359
57.278
53.131
48.935
44.706
40.46
36.213
31.982
27.783
23.631
19.541
15.528
11.605
7.784
4.076
0.493
-2.956
-6.263
-9.42
-12.422
-15.262
-17.936
-20.442
-22.777
-24.94
-26.932
-28.753
-30.406
-31.894
-33.22
-34.39
-35.407
-36.278
-37.009
-37.608
-38.083
-38.44
-38.69
-38.84
-38.899
-38.877
-38.783
-38.626
-38.414
-38.155
-37.858
-37.531
-37.182
-36.816
-36.441
-36.064
-35.69
-35.326
-34.976
-34.646
-34.34
-34.063
-33.817
-33.608
-33.436
-33.306
-33.218
-33.176
-33.18
-33.231
-33.331
-33.478
-33.674
-33.918
-34.208
-34.544
-34.923
-35.343
-35.802
-36.298
-36.828
-37.389
-37.979
-38.594
-39.232
-39.891
-40.567
-41.257
-41.957
-42.663
-43.372
-44.079
-44.78
-45.469
-46.142
-46.793
-47.419
-48.015
-48.577
-49.099
-49.577
-50.007
-50.385
-50.708
-50.971
-51.171
-51.304
-51.37
-51.368
-51.298
-51.159
-50.952
-50.678
-50.34
-49.938
-49.476
-48.955
-48.376
-47.744
-47.06
-46.331
-45.563
-44.762
-43.937
-43.099
-42.258
-41.427
-40.613
-39.827
-39.077
-38.37
-37.713
-37.11
-36.566
-36.088
-35.684
-35.365
-35.137
-35.005
-34.971
-35.036
-35.202
-35.471
-35.838
-36.295
-36.839
-37.474
-38.214
-39.081
-40.086
-41.226
-42.493
-43.88
-45.377
-46.974
-48.639
-50.321
-51.968
-53.537
-55.008
-56.38
-57.631
-58.721
-59.603
-60.22
-60.558
-60.641
-60.471
-60.046
-59.373
-58.437
-57.289
-56.054
-54.862
-53.846
-53.126
-52.736
-52.728
-53.287
-54.537
-56.454
-58.829
-61.168
-62.938
-63.853
-63.84
-62.665
-60.109
-56.455
-52.469
-49.314
-48.607
-50.651
-53.715
-57.797
-63.611
-72.3
-87.462
-106.129
-119.179
-118.001
-92.797
-43.325
19.961
87.811
151.052
207.764
263.714
318.934
369.696
406.689
416.038
391.254
332.195
244.994
142.644
39.478
-49.989
-114.647
-150.35
-161.086
-158.06
-151.588
-146.944
-144.22
-138.439
-126.723
-110.954
-94.294
-80.456
-71.403
-66.436
-64.314
-64.121
-64.897
-65.499
-65.213
-63.614
-60.581
-56.589
-52.125
-47.464
-43.013
-39.241
-36.383
-34.559
-33.742
-33.68
-34.151
-34.973
-35.909
-36.753
-37.385
-37.723
-37.724
-37.38
-36.66
-35.544
-34.034
-32.146
-29.892
-27.289
-24.353
-21.118
-17.637
-13.974
-10.195
-6.362
-2.519
1.306
5.085
8.8
12.437
15.987
19.453
22.838
26.141
29.358
32.484
35.518
38.461
41.319
44.094
46.793
49.418
51.971
54.453
56.862
59.194
61.444
63.607
65.675
67.642
69.504
71.259
72.904
74.437
75.855
77.157
78.339
79.398
80.331
81.134
81.801
82.328
82.712
82.948
83.034
82.966
82.743
82.362
81.82
81.118
80.253
79.225
78.034
76.681
75.167
73.493
71.662
69.676
67.541
65.26
62.838
60.281
57.594
54.785
51.86
48.828
45.696
42.475
39.173
35.802
32.371
28.894
25.381
21.846
18.299
14.754
11.224
7.721
4.258
0.847
-2.499
-5.769
-8.952
-12.036
-15.013
-17.871
-20.603
-23.201
-25.658
-27.967
-30.123
-32.121
-33.958
-35.631
-37.137
-38.477
-39.649
-40.656
-41.499
-42.181
-42.707
-43.08
-43.306
-43.391
-43.342
-43.166
-42.872
-42.466
-41.96
-41.362
-40.681
-39.928
-39.114
-38.248
-37.342
-36.404
-35.446
-34.477
-33.506
-32.543
-31.595
-30.673
-29.783
-28.933
-28.129
-27.38
-26.69
-26.063
-25.505
-25.017
-24.601
-24.261
-23.996
-23.806
-23.692
-23.652
-23.686
-23.79
-23.964
-24.202
-24.502
-24.858
-25.266
-25.719
-26.21
-26.734
-27.283
-27.849
-28.427
-29.009
-29.587
-30.156
-30.706
-31.23
-31.722
-32.174
-32.578
-32.928
-33.217
-33.44
-33.592
-33.671
-33.673
-33.596
-33.44
-33.202
-32.883
-32.483
-32.001
-31.437
-30.793
-30.071
-29.276
-28.411
-27.482
-26.498
-25.467
-24.4
-23.306
-22.194
-21.072
-19.949
-18.833
-17.731
-16.648
-15.593
-14.572
-13.596
-12.677
-11.824
-11.047
-10.351
-9.742
-9.224
-8.802
-8.479
-8.249
-8.112
-8.07
-8.135
-8.327
-8.662
-9.139
-9.754
-10.505
-11.382
-12.382
-13.481
-14.636
-15.806
-16.949
-18.043
-19.093
-20.093
-21.02
-21.846
-22.52
-23.022
-23.377
-23.588
-23.648
-23.551
-23.27
-22.852
-22.43
-22.123
-22.057
-22.328
-22.938
-23.949
-25.489
-27.556
-30.087
-32.885
-35.508
-37.651
-39.167
-39.798
-39.375
-37.98
-35.763
-33.233
-31.324
-30.705
-31.91
-35.576
-41.791
-49.945
-59.006
-67.308
-72.688
-73.237
-67.042
-52.015
-27.012
7.794
51.252
101.226
154.762
208.606
258.945
301.295
331.819
348.005
348.339
332.216
300.106
253.651
195.861
130.99
63.533
-2.589
-63.876
-116.821
-158.388
-186.977
-202.432
-205.65
-198.365
-182.304
-159.037
-131.153
-101.795
-73.2
-47.037
-24.706
-6.717
6.4
13.739
15.592
13.176
7.424
-0.421
-8.885
-17.281
-24.863
-30.473
-33.711
-34.717
-33.623
-31.116
-28.116
-24.966
-21.949
-19.482
-17.656
-16.479
-15.947
-15.722
-15.366
-14.695
-13.615
-12.081
-10.172
-7.91
-5.296
-2.421
0.601
3.691
6.783
9.854
12.925
15.998
19.06
22.099
25.099
28.055
30.976
33.872
36.743
39.579
42.372
45.115
47.804
50.436
53.008
55.511
57.939
60.287
62.548
64.722
66.807
68.798
70.688
72.469
74.133
75.676
77.097
78.393
79.561
80.6
81.508
82.287
82.933
83.447
83.826
84.067
84.168
84.127
83.945
83.622
83.159
82.558
81.822
80.954
79.957
78.834
77.589
76.226
74.748
73.158
71.461
69.66
67.761
65.767
63.683
61.514
59.265
56.941
54.547
52.088
49.569
46.996
44.375
41.712
39.013
36.286
33.537
30.775
28.007
25.24
22.481
19.739
17.02
14.33
11.676
9.065
6.503
3.996
1.55
-0.828
-3.133
-5.358
-7.499
-9.551
-11.508
-13.367
-15.124
-16.775
-18.318
-19.751
-21.072
-22.279
-23.373
-24.354
-25.222
-25.979
-26.627
-27.17
-27.61
-27.952
-28.2
-28.359
-28.434
-28.429
-28.351
-28.205
-27.998
-27.735
-27.423
-27.069
-26.679
-26.261
-25.822
-25.368
-24.907
-24.445
-23.99
-23.546
-23.12
-22.718
-22.343
-22.001
-21.695
-21.428
-21.202
-21.019
-20.88
-20.785
-20.734
-20.726
-20.762
-20.839
-20.955
-21.109
-21.3
-21.524
-21.778
-22.06
-22.366
-22.692
-23.036
-23.393
-23.758
-24.129
-24.501
-24.869
-25.23
-25.58
-25.914
-26.228
-26.518
-26.782
-27.015
-27.216
-27.382
-27.512
-27.606
-27.665
-27.688
-27.677
-27.633
-27.557
-27.45
-27.314
-27.148
-26.955
-26.735
-26.493
-26.231
-25.955
-25.669
-25.379
-25.089
-24.805
-24.53
-24.267
-24.015
-23.775
-23.546
-23.332
-23.133
-22.951
-22.789
-22.647
-22.528
-22.434
-22.364
-22.316
-22.286
-22.267
-22.261
-22.269
-22.298
-22.361
-22.471
-22.633
-22.853
-23.135
-23.476
-23.869
-24.297
-24.729
-25.138
-25.499
-25.781
-25.964
-26.019
-25.922
-25.649
-25.166
-24.448
-23.493
-22.303
-20.891
-19.285
-17.494
-15.561
-13.594
-11.699
-10.006
-8.665
-7.773
-7.472
-7.966
-9.317
-11.488
-14.346
-17.527
-20.697
-23.671
-26.084
-27.51
-27.945
-27.58
-26.952
-27.183
-29.052
-32.973
-39.654
-49.595
-62.363
-76.91
-91.334
-102.787
-108.901
-107.469
-95.782
-71.661
-35.304
10.815
63.68
120.516
182.331
251.758
326.295
398.082
453.486
478.458
467.632
425.355
363.768
296.347
231.358
170.649
111.526
52.222
-5.813
-58.449
-100.455
-129.486
-145.989
-151.343
-147.67
-136.724
-120.108
-100.583
-81.106
-63.496
-48.709
-36.976
-28.015
-21.652
-17.595
-14.852
-12.175
-8.837
-4.589
0.427
5.815
11.298
16.686
21.592
25.523
28.213
29.619
29.87
29.243
27.984
26.267
24.307
22.342
20.544
19.034
17.884
17.099
16.691
16.683
17.078
17.873
19.057
20.595
22.452
24.592
26.963
29.509
32.175
34.899
37.636
40.36
43.051
45.701
48.309
50.871
53.393
55.881
58.341
60.775
63.188
65.577
67.945
70.297
72.637
74.971
77.299
79.62
81.928
84.216
86.476
88.699
90.873
92.983
95.019
96.97
98.828
100.585
102.234
103.765
105.17
106.443
107.574
108.555
109.377
110.032
110.511
110.808
110.916
110.832
110.551
110.068
109.383
108.493
107.396
106.094
104.585
102.871
100.955
98.838
96.526
94.024
91.337
88.472
85.437
82.24
78.891
75.399
71.772
68.023
64.161
60.199
56.149
52.023
47.835
43.598
39.326
35.034
30.736
26.445
22.175
17.938
13.748
9.617
5.556
1.578
-2.308
-6.092
-9.763
-13.313
-16.735
-20.021
-23.166
-26.166
-29.015
-31.711
-34.252
-36.635
-38.86
-40.927
-42.836
-44.588
-46.185
-47.631
-48.929
-50.085
-51.103
-51.989
-52.749
-53.392
-53.922
-54.348
-54.677
-54.916
-55.073
-55.157
-55.175
-55.136
-55.047
-54.915
-54.75
-54.558
-54.346
-54.121
-53.888
-53.655
-53.427
-53.209
-53.007
-52.826
-52.67
-52.545
-52.455
-52.403
-52.394
-52.428
-52.51
-52.64
-52.821
-53.054
-53.339
-53.676
-54.067
-54.51
-55.006
-55.552
-56.146
-56.787
-57.469
-58.191
-58.947
-59.735
-60.548
-61.382
-62.231
-63.092
-63.957
-64.82
-65.676
-66.515
-67.332
-68.118
-68.867
-69.57
-70.218
-70.805
-71.322
-71.764
-72.124
-72.394
-72.568
-72.639
-72.603
-72.454
-72.188
-71.799
-71.287
-70.649
-69.889
-69.01
-68.016
-66.912
-65.704
-64.4
-63.007
-61.533
-59.982
-58.359
-56.674
-54.937
-53.163
-51.365
-49.553
-47.743
-45.947
-44.179
-42.455
-40.783
-39.165
-37.612
-36.138
-34.761
-33.512
-32.413
-31.479
-30.725
-30.161
-29.791
-29.618
-29.63
-29.797
-30.099
-30.518
-31.044
-31.677
-32.395
-33.165
-33.951
-34.705
-35.395
-36.003
-36.503
-36.892
-37.193
-37.441
-37.692
-38.009
-38.439
-39.051
-39.922
-41.129
-42.787
-44.974
-47.802
-51.472
-56.028
-61.373
-67.294
-73.305
-78.923
-83.878
-87.735
-89.945
-90.498
-89.664
-88.158
-87.473
-88.694
-92.314
-99.086
-109.508
-123.036
-138.537
-153.717
-164.952
-169.485
-165.083
-148.945
-118.952
-74.265
-16.251
50.794
121.794
193.253
264.865
337.525
408.393
470.763
513.516
523.61
495.115
430.162
337.27
232.322
130.719
41.448
-29.377
-82.357
-123.475
-155.408
-181.236
-201.812
-213.225
-214.376
-205.734
-189.182
-169.734
-151.256
-135.42
-122.89
-113.29
-106.074
-100.982
-97.48
-94.533
-90.974
-86.237
-80.315
-73.449
-66.089
-58.585
-51.213
-44.447
-38.834
-34.638
-31.882
-30.441
-30.042
-30.475
-31.577
-33.115
-34.83
-36.485
-37.897
-38.963
-39.649
-39.923
-39.754
-39.119
-38.006
-36.436
-34.449
-32.084
-29.384
-26.385
-23.131
-19.683
-16.106
-12.474
-8.841
-5.237
-1.682
1.815
5.248
8.615
11.918
15.176
18.402
21.607
24.795
27.968
31.126
34.277
37.428
40.584
43.745
46.906
50.062
53.204
56.324
59.408
62.443
65.409
68.29
71.074
73.745
76.293
78.703
80.963
83.059
84.982
86.718
88.256
89.585
90.691
91.566
92.199
92.584
92.714
92.582
92.184
91.519
90.584
89.381
87.911
86.176
84.182
81.933
79.438
76.704
73.744
70.567
67.187
63.617
59.874
55.974
51.933
47.769
43.5
39.145
34.723
30.253
25.754
21.245
16.744
12.27
7.841
3.474
-0.815
-5.009
-9.096
-13.062
-16.894
-20.581
-24.115
-27.486
-30.687
-33.712
-36.555
-39.212
-41.682
-43.962
-46.052
-47.952
-49.666
-51.196
-52.547
-53.723
-54.73
-55.576
-56.268
-56.814
-57.223
-57.505
-57.669
-57.726
-57.684
-57.556
-57.349
-57.074
-56.738
-56.352
-55.922
-55.457
-54.963
-54.448
-53.917
-53.378
-52.836
-52.296
-51.763
-51.243
-50.74
-50.257
-49.796
-49.363
-48.962
-48.597
-48.271
-47.986
-47.739
-47.536
-47.384
-47.273
-47.194
-47.14
-47.099
-47.079
-47.097
-47.134
-47.173
-47.248
-47.383
-47.597
-47.92
-48.322
-48.746
-49.22
-49.795
-50.326
-50.638
-50.83
-50.887
-50.773
-50.848
-50.126
-47.652
-44.78
-41.916
-41.555
-46.681
-53.979
-61.237
-65.166
-61.252
-53.482
-45.238
-38.834
-38.103
-40.306
-42.672
-44.591
-44.373
-43.005
-41.757
-40.393
-39.083
-37.75
-36.141
-34.428
-32.752
-31.078
-29.408
-27.772
-26.173
-24.611
-23.091
-21.597
-20.114
-18.661
-17.25
-15.887
-14.581
-13.343
-12.201
-11.176
-10.284
-9.534
-8.927
-8.459
-8.133
-7.934
-7.835
-7.822
-7.872
-7.98
-8.148
-8.355
-8.588
-8.827
-9.043
-9.229
-9.358
-9.395
-9.347
-9.237
-9.104
-9.047
-9.083
-9.181
-9.49
-10.129
-11.221
-12.995
-15.39
-18.286
-21.915
-26.395
-31.441
-36.769
-41.663
-45.222
-47.437
-48.295
-47.331
-44.542
-40.339
-35.653
-32.484
-32.596
-36.628
-44.085
-54.462
-68.192
-84.328
-102.957
-122.843
-137.315
-142.015
-131.285
-99.136
-49.255
14.416
87.116
160.688
233.427
303.454
366.062
418.315
455.418
473.337
471.307
449.382
408.785
352.666
285.028
210.288
133.686
59.81
-7.393
-63.794
-106.748
-135.592
-150.723
-153.721
-147.269
-133.819
-116.247
-98.293
-82.428
-69.895
-61.363
-56.432
-54.237
-54.139
-54.986
-55.116
-53.636
-50.204
-44.816
-38.058
-30.499
-22.505
-14.639
-7.545
-1.575
3.099
6.478
8.798
10.248
10.958
11.107
10.875
10.415
9.878
9.409
9.101
9.033
9.274
9.863
10.829
12.194
13.955
16.087
18.551
21.306
24.312
27.54
30.958
34.521
38.173
41.853
45.513
49.124
52.665
56.12
59.48
62.736
65.891
68.962
71.964
74.903
77.784
80.606
83.37
86.083
88.751
91.378
93.965
96.51
99.009
101.459
103.856
106.192
108.457
110.639
112.726
114.712
116.589
118.35
119.989
121.497
122.869
124.101
125.187
126.121
126.899
127.513
127.96
128.237
128.34
128.265
128.012
127.579
126.965
126.172
125.199
124.049
122.723
121.225
119.559
117.728
115.739
113.598
111.31
108.884
106.328
103.65
100.859
97.964
94.974
91.898
88.745
85.526
82.249
78.922
75.555
72.157
68.737
65.303
61.864
58.428
55.003
51.595
48.211
44.858
41.543
38.269
35.043
31.87
28.754
25.701
22.713
19.793
16.945
14.17
11.47
8.845
6.296
3.821
1.421
-0.903
-3.154
-5.33
-7.433
-9.462
-11.42
-13.306
-15.122
-16.869
-18.551
-20.168
-21.722
-23.215
-24.648
-26.022
-27.339
-28.601
-29.809
-30.965
-32.072
-33.131
-34.148
-35.123
-36.061
-36.962
-37.828
-38.662
-39.463
-40.23
-40.962
-41.658
-42.317
-42.94
-43.527
-44.08
-44.6
-45.092
-45.558
-46.001
-46.42
-46.814
-47.178
-47.508
-47.799
-48.045
-48.239
-48.379
-48.458
-48.476
-48.436
-48.338
-48.177
-47.945
-47.628
-47.218
-46.716
-46.122
-45.441
-44.689
-43.885
-43.066
-42.277
-41.543
-40.883
-40.299
-39.774
-39.299
-38.861
-38.44
-38.034
-37.632
-37.218
-36.791
-36.34
-35.835
-35.232
-34.455
-33.412
-32.057
-30.369
-28.347
-26.036
-23.479
-20.74
-17.925
-15.114
-12.382
-9.802
-7.408
-5.241
-3.378
-1.892
-0.888
-0.486
-0.738
-1.672
-3.306
-5.59
-8.465
-11.832
-15.518
-19.389
-23.337
-27.261
-31.103
-34.804
-38.282
-41.508
-44.448
-47.044
-49.293
-51.174
-52.672
-53.887
-54.908
-55.843
-56.88
-58.114
-59.661
-61.739
-64.378
-67.468
-70.862
-74.18
-77.055
-79.34
-80.646
-80.452
-78.712
-75.607
-71.539
-67.305
-63.599
-60.997
-60.251
-62.249
-66.188
-69.443
-70.801
-69.5
-66.312
-64.881
-62.618
-51.831
-25.982
23.204
95.15
178.847
265.175
342.683
403.696
449.825
479.654
494.023
495.788
480.259
445.672
389.046
302.36
188.159
54.579
-84.078
-202.158
-281.37
-315.581
-308.617
-277.452
-239.607
-204.229
-174.847
-149.357
-123.84
-98.371
-75
-56.593
-46.452
-44.818
-49.825
-58.742
-68.162
-76.213
-82.359
-86.052
-86.792
-84.512
-79.467
-72.666
-65.744
-59.631
-54.621
-50.897
-48.498
-47.429
-47.664
-48.849
-50.313
-51.59
-52.457
-52.806
-52.673
-52.057
-50.905
-49.226
-47.101
-44.607
-41.81
-38.744
-35.402
-31.787
-27.942
-23.915
-19.777
-15.599
-11.425
-7.282
-3.191
0.833
4.778
8.627
12.376
16.032
19.602
23.084
26.474
29.76
32.942
36.024
39.017
41.927
44.754
47.496
50.145
52.699
55.153
57.5
59.728
61.826
63.784
65.595
67.254
68.754
70.089
71.252
72.236
73.035
73.645
74.059
74.272
74.278
74.074
73.655
73.021
72.171
71.102
69.816
68.314
66.599
64.673
62.541
60.206
57.675
54.954
52.051
48.974
45.734
42.339
38.803
35.137
31.354
27.469
23.497
19.451
15.347
11.202
7.03
2.849
-1.326
-5.478
-9.592
-13.651
-17.64
-21.544
-25.349
-29.041
-32.607
-36.037
-39.32
-42.445
-45.406
-48.194
-50.803
-53.229
-55.467
-57.516
-59.372
-61.038
-62.513
-63.801
-64.905
-65.829
-66.58
-67.165
-67.59
-67.865
-67.998
-67.999
-67.879
-67.647
-67.314
-66.892
-66.392
-65.825
-65.203
-64.535
-63.833
-63.105
-62.363
-61.613
-60.864
-60.123
-59.396
-58.691
-58.011
-57.362
-56.746
-56.167
-55.626
-55.124
-54.66
-54.234
-53.842
-53.481
-53.148
-52.838
-52.548
-52.27
-51.999
-51.731
-51.458
-51.175
-50.874
-50.549
-50.194
-49.801
-49.365
-48.879
-48.339
-47.739
-47.075
-46.344
-45.544
-44.673
-43.73
-42.712
-41.619
-40.453
-39.214
-37.903
-36.523
-35.078
-33.572
-32.014
-30.413
-28.78
-27.122
-25.452
-23.782
-22.122
-20.483
-18.873
-17.298
-15.765
-14.284
-12.864
-11.514
-10.244
-9.062
-7.979
-7.003
-6.14
-5.397
-4.772
-4.265
-3.877
-3.609
-3.467
-3.468
-3.621
-3.935
-4.413
-5.051
-5.839
-6.762
-7.793
-8.892
-10.026
-11.157
-12.255
-13.293
-14.241
-15.08
-15.789
-16.326
-16.661
-16.766
-16.632
-16.28
-15.756
-15.094
-14.346
-13.576
-12.86
-12.312
-12.04
-12.15
-12.729
-13.799
-15.436
-17.765
-20.801
-24.491
-28.596
-32.638
-36.264
-39.245
-41.202
-41.851
-41.157
-39.166
-36.508
-34.288
-33.111
-33.516
-36.33
-41.582
-48.599
-56.756
-63.243
-64.589
-59.886
-47.004
-25.609
1.579
35.689
77.002
125.689
185.945
257.43
335.106
411.202
470.613
499.108
490.799
444.834
371.503
285.911
196.931
114.799
43.083
-18.927
-66.338
-100.728
-123.843
-135.462
-140.027
-138.093
-129.467
-116.641
-101.567
-87.292
-76.277
-69.071
-65.402
-64.252
-64.726
-65.902
-66.399
-65.383
-62.517
-57.773
-51.696
-44.837
-37.557
-30.368
-23.858
-18.363
-14.054
-10.937
-8.795
-7.451
-6.781
-6.614
-6.774
-7.109
-7.472
-7.725
-7.784
-7.578
-7.044
-6.146
-4.859
-3.167
-1.075
1.388
4.187
7.283
10.634
14.21
17.974
21.88
25.871
29.886
33.878
37.816
41.676
45.442
49.099
52.638
56.058
59.37
62.584
65.704
68.73
71.661
74.496
77.238
79.894
82.467
84.956
87.36
89.675
91.897
94.023
96.044
97.951
99.734
101.381
102.888
104.247
105.452
106.5
107.383
108.097
108.638
109.005
109.192
109.197
109.017
108.649
108.093
107.349
106.418
105.3
103.998
102.513
100.851
99.014
97.006
94.833
92.5
90.013
87.38
84.608
81.706
78.684
75.551
72.318
68.995
65.595
62.129
58.609
55.047
51.454
47.843
44.225
40.611
37.012
33.439
29.903
26.412
22.977
19.605
16.303
13.079
9.94
6.889
3.932
1.073
-1.684
-4.338
-6.885
-9.325
-11.656
-13.878
-15.993
-18.001
-19.905
-21.707
-23.412
-25.023
-26.545
-27.982
-29.341
-30.626
-31.844
-32.998
-34.096
-35.143
-36.144
-37.105
-38.03
-38.924
-39.791
-40.634
-41.456
-42.26
-43.047
-43.817
-44.573
-45.313
-46.038
-46.749
-47.443
-48.12
-48.779
-49.418
-50.035
-50.626
-51.188
-51.717
-52.209
-52.659
-53.061
-53.413
-53.707
-53.941
-54.109
-54.208
-54.233
-54.178
-54.042
-53.819
-53.508
-53.104
-52.606
-52.013
-51.324
-50.54
-49.662
-48.694
-47.638
-46.497
-45.274
-43.975
-42.603
-41.165
-39.665
-38.109
-36.505
-34.862
-33.19
-31.502
-29.81
-28.126
-26.464
-24.837
-23.259
-21.739
-20.287
-18.911
-17.619
-16.418
-15.318
-14.329
-13.461
-12.724
-12.126
-11.674
-11.372
-11.225
-11.231
-11.387
-11.69
-12.137
-12.73
-13.483
-14.407
-15.508
-16.786
-18.232
-19.827
-21.556
-23.392
-25.297
-27.232
-29.152
-31.021
-32.815
-34.517
-36.118
-37.593
-38.896
-39.984
-40.834
-41.451
-41.868
-42.112
-42.209
-42.195
-42.122
-42.084
-42.192
-42.544
-43.236
-44.326
-45.82
-47.802
-50.417
-53.665
-57.451
-61.483
-65.202
-68.182
-70.147
-70.723
-69.641
-66.941
-62.803
-57.967
-53.772
-51.307
-51.481
-55.001
-61.669
-70.523
-80.366
-89.15
-93.841
-91.435
-79.094
-54.388
-17.695
27.978
81.148
140.189
203.591
272.274
340.474
397.405
434.265
441.003
416.018
367.976
305.19
237.479
170.936
104.797
39.614
-23.179
-80.661
-127.667
-161.61
-182.401
-191.19
-190.31
-181.795
-167.522
-150.233
-132.849
-117.317
-104.626
-94.999
-88.112
-83.651
-81.23
-79.828
-78.109
-75.319
-71.267
-66.108
-60.295
-54.157
-47.886
-41.913
-36.796
-32.843
-30.152
-28.629
-27.999
-28.058
-28.677
-29.68
-30.88
-32.094
-33.132
-33.881
-34.306
-34.373
-34.062
-33.349
-32.197
-30.604
-28.606
-26.242
-23.554
-20.583
-17.353
-13.904
-10.283
-6.544
-2.749
1.063
4.869
8.652
12.401
16.107
19.755
23.347
26.895
30.406
33.883
37.325
40.725
44.081
47.397
50.672
53.905
57.091
60.222
63.288
66.281
69.188
71.997
74.69
77.251
79.665
81.918
83.999
85.896
87.599
89.098
90.383
91.447
92.284
92.885
93.246
93.36
93.224
92.836
92.195
91.3
90.153
88.756
87.113
85.229
83.11
80.762
78.193
75.412
72.431
69.259
65.911
62.399
58.738
54.945
51.036
47.027
42.938
38.784
34.585
30.358
26.12
21.888
17.68
13.511
9.397
5.353
1.393
-2.469
-6.222
-9.853
-13.353
-16.711
-19.919
-22.971
-25.859
-28.58
-31.128
-33.502
-35.698
-37.716
-39.556
-41.22
-42.71
-44.03
-45.185
-46.18
-47.023
-47.721
-48.282
-48.717
-49.034
-49.243
-49.354
-49.379
-49.326
-49.206
-49.031
-48.809
-48.55
-48.266
-47.964
-47.654
-47.344
-47.043
-46.757
-46.493
-46.257
-46.055
-45.892
-45.773
-45.702
-45.681
-45.714
-45.803
-45.95
-46.155
-46.419
-46.74
-47.118
-47.549
-48.031
-48.56
-49.133
-49.744
-50.388
-51.061
-51.758
-52.471
-53.196
-53.926
-54.653
-55.371
-56.072
-56.749
-57.395
-58.003
-58.566
-59.078
-59.534
-59.929
-60.258
-60.516
-60.701
-60.808
-60.835
-60.778
-60.637
-60.408
-60.092
-59.688
-59.2
-58.63
-57.986
-57.271
-56.492
-55.658
-54.773
-53.846
-52.883
-51.888
-50.866
-49.823
-48.767
-47.707
-46.656
-45.623
-44.62
-43.657
-42.744
-41.886
-41.092
-40.363
-39.704
-39.117
-38.607
-38.187
-37.878
-37.697
-37.653
-37.75
-37.986
-38.355
-38.848
-39.453
-40.141
-40.889
-41.673
-42.472
-43.274
-44.072
-44.856
-45.599
-46.263
-46.806
-47.215
-47.503
-47.684
-47.772
-47.772
-47.684
-47.562
-47.487
-47.53
-47.782
-48.322
-49.17
-50.399
-52.14
-54.412
-57.15
-60.144
-62.93
-65.104
-66.41
-66.493
-65.106
-62.361
-58.561
-54.441
-51.246
-49.948
-51.351
-56.371
-65.182
-76.987
-90.443
-103.332
-112.761
-116.261
-111.308
-95.174
-66.599
-25.967
25.27
84.28
147.152
209.873
267.735
315.332
348.63
365.219
363.619
343.652
306.749
255.38
193.399
126.043
58.052
-6.665
-64.152
-110.841
-144.727
-165.178
-172.973
-170.383
-159.768
-143.278
-123.779
-104.537
-87.826
-74.954
-66.343
-61.423
-59.566
-60.278
-62.526
-64.893
-66.438
-66.691
-65.591
-63.552
-60.945
-58
-55.11
-52.765
-51.236
-50.617
-50.851
-51.69
-52.907
-54.335
-55.766
-56.996
-57.904
-58.406
-58.452
-58.049
-57.188
-55.852
-54.053
-51.807
-49.126
-46.038
-42.575
-38.774
-34.687
-30.38
-25.91
-21.344
-16.729
-12.099
-7.488
-2.92
1.584
6.007
10.338
14.568
18.686
22.679
26.536
30.243
33.793
37.18
40.399
43.446
46.316
49.003
51.5
53.802
55.899
57.786
59.456
60.901
62.118
63.104
63.859
64.385
64.687
64.766
64.629
64.283
63.733
62.987
62.053
60.94
59.656
58.211
56.616
54.881
53.02
51.042
48.961
46.788
44.536
42.216
39.842
37.423
34.971
32.497
30.01
27.521
25.038
22.569
20.123
17.705
15.323
12.982
10.686
8.441
6.249
4.114
2.037
0.019
-1.938
-3.834
-5.668
-7.441
-9.154
-10.807
-12.402
-13.939
-15.42
-16.846
-18.22
-19.543
-20.818
-22.045
-23.228
-24.367
-25.465
-26.521
-27.538
-28.515
-29.453
-30.351
-31.21
-32.028
-32.805
-33.54
-34.232
-34.879
-35.482
-36.037
-36.545
-37.002
-37.408
-37.76
-38.058
-38.298
-38.48
-38.603
-38.664
-38.663
-38.6
-38.472
-38.279
-38.02
-37.694
-37.299
-36.836
-36.302
-35.698
-35.024
-34.281
-33.468
-32.588
-31.641
-30.631
-29.557
-28.422
-27.227
-25.974
-24.663
-23.295
-21.873
-20.395
-18.863
-17.278
-15.64
-13.952
-12.212
-10.422
-8.582
-6.692
-4.753
-2.766
-0.731
1.35
3.474
5.639
7.842
10.077
12.341
14.63
16.938
19.262
21.596
23.935
26.274
28.608
30.934
33.246
35.535
37.791
40.003
42.158
44.243
46.248
48.157
49.96
51.645
53.205
54.638
55.942
57.113
58.15
59.043
59.788
60.386
60.843
61.165
61.366
61.452
61.43
61.312
61.107
60.824
60.467
60.018
59.454
58.754
57.892
56.869
55.689
54.34
52.81
51.072
49.11
46.961
44.683
42.343
40.006
37.666
35.345
33.173
31.218
29.499
27.967
26.315
24.272
21.898
19.263
16.48
13.945
11.887
10.762
11.682
15.601
22.99
34.008
48.045
63.9
80.706
97.031
110.573
119.184
120.826
114.28
99.908
78.764
51.896
21.365
-9.928
-38.778
-61.301
-74.538
-76.989
-67.487
-45.497
-11.779
32.046
83.364
138.335
193.362
245.08
289.641
323.828
345.474
353.21
346.855
327.305
296.006
255.31
208.814
160.269
113.075
70.263
34.023
5.959
-12.966
-22.851
-25.042
-21.542
-14.555
-6.345
1.39
7.284
10.316
10.156
7.129
1.997
-4.16
-10.114
-15.069
-18.474
-19.964
-19.572
-17.489
-14.009
-9.636
-4.933
-0.258
4.121
8.051
11.549
14.605
17.229
19.508
21.527
23.354
25.057
26.668
28.213
29.761
31.358
33.041
34.851
36.806
38.94
41.29
43.864
46.661
49.674
52.888
56.29
59.865
63.578
67.389
71.255
75.118
78.941
82.695
86.354
89.906
93.339
96.638
99.8
102.828
105.727
108.489
111.095
113.509
115.711
117.695
119.474
121.075
122.507
123.8
125.038
126.327
127.726
129.259
130.89
132.526
134.127
135.545
136.39
136.366
135.477
133.845
131.731
128.659
123.206
114.712
104.293
96.493
97.528
111.383
137.154
165.455
183.683
181.734
155.748
114.265
71.945
42.573
35.088
48.248
72.591
97.656
116.119
122.889
119.656
110.039
94.918
79.832
67.409
57.99
54.393
53.912
53.935
54.062
52.44
49.748
47.148
44.389
41.626
38.801
35.683
32.487
29.423
26.497
23.708
21.061
18.546
16.15
13.87
11.679
9.542
7.468
5.463
3.518
1.643
-0.157
-1.883
-3.525
-5.095
-6.616
-8.081
-9.478
-10.849
-12.224
-13.629
-15.1
-16.614
-18.12
-19.651
-21.266
-22.824
-24.16
-25.377
-26.468
-27.403
-28.548
-28.926
-27.585
-25.886
-24.243
-25.154
-31.609
-40.299
-49.016
-54.476
-52.166
-46.077
-39.591
-35.026
-36.212
-40.408
-44.835
-48.874
-50.83
-51.685
-52.697
-53.627
-54.634
-55.632
-56.363
-56.995
-57.659
-58.31
-58.937
-59.554
-60.154
-60.725
-61.261
-61.737
-62.122
-62.43
-62.67
-62.839
-62.939
-62.97
-62.931
-62.826
-62.659
-62.43
-62.139
-61.789
-61.383
-60.926
-60.425
-59.889
-59.325
-58.742
-58.148
-57.551
-56.958
-56.376
-55.809
-55.259
-54.733
-54.236
-53.777
-53.367
-53.017
-52.736
-52.531
-52.407
-52.369
-52.421
-52.562
-52.787
-53.091
-53.474
-53.946
-54.533
-55.251
-56.11
-57.106
-58.229
-59.471
-60.84
-62.311
-63.833
-65.358
-66.831
-68.23
-69.603
-70.964
-72.272
-73.531
-74.749
-75.922
-77.124
-78.388
-79.584
-80.654
-81.644
-82.404
-82.688
-82.598
-82.28
-81.712
-81.446
-80.881
-77.92
-73.327
-69.02
-67.828
-76.369
-94.284
-113.98
-128.884
-127.768
-107.502
-79.398
-52.064
-36.48
-39.375
-51.986
-68.336
-84.239
-95.18
-105.464
-117.4
-128.926
-138.691
-142.566
-136.089
-117.186
-84.694
-39.864
13.394
70.81
129.01
188.105
249.085
308.668
360.341
392.63
393.325
359.447
293.564
202.644
100.143
-3.141
-96.172
-164.94
-203.799
-212.989
-198.927
-176.314
-155.236
-139.809
-130.107
-121.403
-111.637
-101.851
-93.675
-89.446
-89.31
-91.69
-94.974
-97.331
-97.833
-96.409
-93.083
-88.205
-82.303
-75.844
-69.4
-63.576
-58.669
-54.774
-51.894
-49.884
-48.597
-47.931
-47.737
-47.842
-48.138
-48.518
-48.875
-49.15
-49.273
-49.171
-48.81
-48.158
-47.194
-45.917
-44.34
-42.474
-40.349
-37.99
-35.412
-32.645
-29.719
-26.673
-23.558
-20.412
-17.26
-14.123
-11.013
-7.94
-4.911
-1.924
1.032
3.965
6.881
9.784
12.669
15.537
18.39
21.233
24.067
26.891
29.701
32.49
35.253
37.979
40.659
43.278
45.82
48.271
50.617
52.846
54.947
56.907
58.715
60.358
61.827
63.113
64.205
65.093
65.769
66.224
66.453
66.451
66.213
65.735
65.015
64.052
62.847
61.401
59.718
57.801
55.655
53.288
50.708
47.924
44.948
41.79
38.464
34.983
31.362
27.618
23.766
19.823
15.805
11.731
7.618
3.483
-0.656
-4.784
-8.884
-12.939
-16.934
-20.855
-24.689
-28.423
-32.045
-35.543
-38.907
-42.129
-45.2
-48.113
-50.863
-53.444
-55.852
-58.084
-60.139
-62.017
-63.717
-65.239
-66.586
-67.761
-68.767
-69.609
-70.291
-70.819
-71.199
-71.44
-71.55
-71.536
-71.408
-71.173
-70.843
-70.426
-69.933
-69.37
-68.744
-68.063
-67.336
-66.57
-65.772
-64.946
-64.099
-63.242
-62.383
-61.53
-60.691
-59.87
-59.072
-58.303
-57.569
-56.874
-56.222
-55.608
-55.036
-54.516
-54.055
-53.667
-53.35
-53.089
-52.872
-52.697
-52.553
-52.434
-52.325
-52.201
-52.056
-51.905
-51.759
-51.637
-51.54
-51.446
-51.34
-51.204
-51.04
-50.875
-50.717
-50.559
-50.411
-50.292
-50.23
-50.276
-50.425
-50.622
-50.82
-50.973
-51.06
-51.093
-51.072
-50.986
-50.819
-50.54
-50.136
-49.617
-48.963
-48.133
-47.083
-45.746
-44.126
-42.304
-40.343
-38.302
-36.225
-34.12
-32.011
-29.94
-27.937
-26.028
-24.235
-22.565
-21.05
-19.742
-18.696
-17.98
-17.606
-17.52
-17.67
-17.999
-18.464
-19.052
-19.745
-20.514
-21.339
-22.21
-23.109
-24.032
-24.972
-25.91
-26.813
-27.644
-28.401
-29.139
-29.954
-30.945
-32.182
-33.688
-35.457
-37.51
-39.885
-42.61
-45.728
-49.251
-53.142
-57.424
-62.18
-67.391
-72.924
-78.447
-83.383
-87.239
-89.697
-90.416
-89.18
-86.031
-81.208
-75.474
-70.049
-65.935
-63.963
-64.803
-68.444
-74.292
-81.342
-87.587
-90.459
-87.663
-76.784
-55.77
-23.966
18.321
69.93
128.002
188.845
248.713
302.731
345.909
374.888
386.86
380.881
359.178
322.942
273.123
211.016
135.93
52.891
-27.934
-96.425
-141.12
-160.031
-160.755
-150.694
-138.84
-128.599
-116.713
-102.839
-87.447
-71.815
-59.371
-51.216
-46.617
-44.992
-45.241
-46.032
-46.402
-45.702
-43.568
-40.174
-36.009
-31.415
-26.677
-22.213
-18.426
-15.558
-13.727
-12.829
-12.629
-12.95
-13.63
-14.515
-15.455
-16.294
-16.923
-17.274
-17.322
-17.058
-16.473
-15.549
-14.277
-12.666
-10.733
-8.514
-6.04
-3.338
-0.443
2.609
5.777
9.009
12.269
15.533
18.786
22.022
25.238
28.428
31.593
34.742
37.884
41.026
44.174
47.326
50.483
53.65
56.835
60.041
63.272
66.525
69.796
73.081
76.374
79.665
82.944
86.196
89.407
92.566
95.659
98.677
101.604
104.427
107.132
109.706
112.135
114.404
116.498
118.403
120.103
121.587
122.843
123.86
124.628
125.138
125.383
125.357
125.054
124.472
123.606
122.456
121.021
119.303
117.305
115.031
112.487
109.682
106.623
103.323
99.794
96.048
92.101
87.969
83.669
79.219
74.639
69.948
65.166
60.315
55.417
50.492
45.562
40.648
35.77
30.947
26.2
21.545
17
12.58
8.301
4.177
0.219
-3.561
-7.151
-10.544
-13.732
-16.708
-19.468
-22.007
-24.324
-26.418
-28.291
-29.943
-31.378
-32.602
-33.62
-34.44
-35.07
-35.518
-35.797
-35.915
-35.885
-35.719
-35.428
-35.026
-34.525
-33.936
-33.273
-32.548
-31.771
-30.954
-30.107
-29.242
-28.367
-27.492
-26.626
-25.778
-24.954
-24.162
-23.41
-22.704
-22.049
-21.45
-20.911
-20.436
-20.027
-19.685
-19.41
-19.202
-19.06
-18.982
-18.965
-19.007
-19.103
-19.25
-19.442
-19.675
-19.944
-20.242
-20.565
-20.907
-21.262
-21.624
-21.99
-22.354
-22.712
-23.06
-23.39
-23.696
-23.97
-24.208
-24.409
-24.568
-24.671
-24.719
-24.726
-24.703
-24.665
-24.612
-24.518
-24.382
-24.237
-24.063
-23.802
-23.41
-22.836
-22.078
-21.222
-20.294
-19.208
-18.066
-17.191
-16.656
-16.374
-16.396
-16.381
-16.993
-20.216
-25.589
-31.313
-34.372
-29.142
-16.075
-0.819
10.97
11.277
-0.281
-16.162
-30.539
-37.069
-34.733
-29.138
-23.687
-20.74
-20.944
-21.973
-22.775
-23.382
-23.697
-24.041
-24.468
-24.658
-24.501
-24.053
-23.362
-22.486
-21.52
-20.577
-19.749
-19.154
-18.918
-19.116
-19.863
-21.28
-23.398
-26.268
-29.978
-34.502
-39.734
-45.438
-51.143
-56.373
-60.787
-64.064
-65.94
-66.443
-65.751
-64.236
-62.608
-61.53
-61.542
-62.944
-65.642
-68.86
-71.318
-71.642
-68.202
-59.211
-42.711
-17.032
18.72
63.191
113.045
165.506
218.551
272.683
329.375
386.555
437.734
472.165
479.908
455.524
401.325
327.109
241.225
153.254
71.777
0.168
-54.286
-89.18
-109.559
-118.758
-123.486
-126.964
-125.317
-117.143
-102.385
-83.238
-64.98
-50.288
-39.338
-31.963
-27.574
-26.032
-27.525
-30.923
-34.426
-37.113
-38.769
-39.449
-39.352
-38.323
-35.891
-32.448
-28.991
-26.075
-23.973
-22.695
-21.97
-21.781
-22.375
-23.633
-25.109
-26.483
-27.518
-28.139
-28.473
-28.551
-28.26
-27.533
-26.433
-25.066
-23.369
-21.213
-18.688
-15.804
-12.557
-9.364
-5.303
0.546
6.766
12.912
16.426
14.25
9.749
5.172
3.876
10.469
20.881
31.66
40.435
43.291
43.019
42.456
42.237
44.092
47.016
49.717
52.433
54.99
57.467
60.114
62.744
65.209
67.541
69.741
71.785
73.668
75.391
76.951
78.366
79.657
80.805
81.789
82.607
83.251
83.714
83.995
84.086
83.979
83.675
83.172
82.471
81.572
80.477
79.186
77.704
76.033
74.179
72.149
69.948
67.587
65.073
62.416
59.629
56.723
53.71
50.601
47.411
44.15
40.834
37.473
34.081
30.67
27.253
23.843
20.451
17.091
13.773
10.508
7.305
4.175
1.126
-1.834
-4.697
-7.458
-10.111
-12.65
-15.07
-17.369
-19.542
-21.588
-23.506
-25.294
-26.953
-28.484
-29.888
-31.167
-32.324
-33.36
-34.281
-35.088
-35.787
-36.381
-36.874
-37.272
-37.577
-37.795
-37.929
-37.984
-37.964
-37.871
-37.711
-37.486
-37.2
-36.857
-36.458
-36.009
-35.511
-34.967
-34.381
-33.756
-33.094
-32.399
-31.675
-30.924
-30.151
-29.36
-28.555
-27.74
-26.918
-26.092
-25.266
-24.443
-23.625
-22.814
-22.013
-21.224
-20.449
-19.692
-18.954
-18.237
-17.544
-16.875
-16.233
-15.619
-15.034
-14.477
-13.95
-13.454
-12.99
-12.56
-12.165
-11.805
-11.481
-11.19
-10.934
-10.708
-10.511
-10.338
-10.187
-10.055
-9.94
-9.842
-9.759
-9.692
-9.642
-9.61
-9.598
-9.603
-9.626
-9.667
-9.725
-9.801
-9.891
-9.995
-10.107
-10.228
-10.357
-10.494
-10.636
-10.782
-10.929
-11.081
-11.244
-11.42
-11.61
-11.815
-12.039
-12.294
-12.606
-12.994
-13.474
-14.062
-14.767
-15.6
-16.57
-17.661
-18.831
-20.035
-21.221
-22.355
-23.428
-24.423
-25.322
-26.103
-26.719
-27.131
-27.311
-27.215
-26.814
-26.099
-25.083
-23.86
-22.582
-21.44
-20.684
-20.438
-20.667
-21.252
-21.91
-22.366
-22.516
-22.141
-20.916
-18.97
-16.784
-15.195
-15.539
-18.807
-25.371
-35.711
-50.245
-68.496
-89.306
-110.553
-129.13
-142.497
-148.781
-145.954
-132.174
-106.697
-69.939
-23.926
27.979
82.711
137.205
187.782
230.521
262.045
280.203
284.409
275.092
252.797
218.836
175.636
126.553
75.392
25.316
-21.242
-61.944
-94.659
-118.189
-132.317
-137.889
-136.638
-130.149
-120.004
-108.3
-96.924
-87.123
-79.694
-74.73
-71.729
-70.293
-69.857
-69.442
-68.365
-66.281
-62.986
-58.65
-53.637
-48.206
-42.732
-37.726
-33.47
-30.086
-27.616
-25.929
-24.883
-24.374
-24.225
-24.227
-24.221
-24.098
-23.807
-23.341
-22.669
-21.748
-20.547
-19.052
-17.275
-15.229
-12.922
-10.365
-7.577
-4.6
-1.485
1.712
4.939
8.16
11.355
14.503
17.592
20.613
23.56
26.436
29.252
32.012
34.715
37.362
39.953
42.49
44.981
47.431
49.846
52.23
54.585
56.912
59.21
61.473
63.696
65.871
67.988
70.038
72.012
73.904
75.705
77.409
79.009
80.498
81.869
83.113
84.222
85.188
86.002
86.654
87.138
87.446
87.571
87.508
87.252
86.8
86.15
85.3
84.247
82.993
81.535
79.877
78.023
75.978
73.747
71.336
68.75
66.003
63.109
60.07
56.891
53.579
50.137
46.588
42.963
39.265
35.492
31.695
27.916
24.19
20.565
17.03
13.549
10.166
6.946
3.766
0.476
-2.818
-6.112
-9.429
-12.41
-15.99
-21.082
-26.368
-31.445
-33.899
-30.845
-25.473
-19.912
-17.332
-22.088
-30.335
-38.812
-45.29
-46.078
-43.826
-41.22
-38.862
-38.393
-38.875
-39.097
-39.301
-39.342
-39.309
-39.459
-39.639
-39.729
-39.778
-39.802
-39.794
-39.761
-39.719
-39.677
-39.663
-39.708
-39.804
-39.944
-40.133
-40.372
-40.662
-41.006
-41.397
-41.831
-42.306
-42.819
-43.367
-43.945
-44.546
-45.165
-45.796
-46.433
-47.069
-47.696
-48.307
-48.893
-49.447
-49.961
-50.426
-50.834
-51.178
-51.452
-51.651
-51.771
-51.808
-51.759
-51.621
-51.392
-51.072
-50.659
-50.151
-49.548
-48.852
-48.065
-47.19
-46.232
-45.197
-44.094
-42.929
-41.715
-40.461
-39.175
-37.866
-36.544
-35.216
-33.892
-32.579
-31.285
-30.022
-28.801
-27.635
-26.536
-25.515
-24.578
-23.733
-22.987
-22.342
-21.802
-21.367
-21.033
-20.806
-20.694
-20.713
-20.88
-21.199
-21.668
-22.289
-23.061
-23.976
-25.019
-26.157
-27.346
-28.558
-29.775
-30.99
-32.207
-33.411
-34.577
-35.676
-36.675
-37.562
-38.325
-38.93
-39.332
-39.5
-39.44
-39.24
-39.024
-38.892
-38.931
-39.169
-39.621
-40.385
-41.444
-42.673
-43.869
-44.65
-44.683
-43.861
-42.135
-39.437
-36.041
-32.341
-28.805
-26.402
-25.982
-28.019
-32.847
-40.314
-49.35
-58.564
-66.55
-71.17
-70.39
-62.478
-45.712
-19.521
15.014
56.186
102.164
150.083
196.81
238.925
272.248
293.795
302.273
296.851
277.109
244.02
199.32
145.858
88.161
30.216
-24.777
-73.338
-112.556
-140.83
-157.344
-162.628
-158.865
-148.162
-132.718
-115.448
-98.73
-84.12
-72.741
-64.806
-59.723
-56.989
-55.83
-54.992
-53.669
-51.446
-48.115
-43.912
-39.217
-34.294
-29.548
-25.508
-22.458
-20.514
-19.665
-19.711
-20.464
-21.77
-23.422
-25.201
-26.923
-28.45
-29.695
-30.625
-31.212
-31.423
-31.235
-30.634
-29.628
-28.238
-26.491
-24.42
-22.052
-19.43
-16.604
-13.624
-10.548
-7.414
-4.247
-1.066
2.116
5.293
8.454
11.599
14.73
17.849
20.955
24.045
27.111
30.15
33.159
36.137
39.083
41.991
44.854
47.661
50.403
53.068
55.644
58.117
60.472
62.695
64.776
66.704
68.471
70.07
71.491
72.728
73.773
74.621
75.266
75.701
75.922
75.925
75.706
75.267
74.605
73.725
72.627
71.316
69.799
68.083
66.174
64.083
61.819
59.393
56.816
54.1
51.259
48.306
45.255
42.12
38.916
35.658
32.362
29.042
25.713
22.39
19.087
15.818
12.597
9.438
6.353
3.355
0.456
-2.333
-5.003
-7.544
-9.947
-12.207
-14.318
-16.275
-18.074
-19.716
-21.197
-22.519
-23.683
-24.691
-25.546
-26.252
-26.813
-27.233
-27.52
-27.68
-27.719
-27.645
-27.467
-27.192
-26.829
-26.387
-25.875
-25.302
-24.677
-24.009
-23.307
-22.578
-21.832
-21.077
-20.319
-19.567
-18.827
-18.105
-17.406
-16.735
-16.097
-15.494
-14.929
-14.404
-13.921
-13.48
-13.084
-12.731
-12.422
-12.158
-11.938
-11.762
-11.627
-11.534
-11.481
-11.464
-11.483
-11.533
-11.612
-11.716
-11.843
-11.988
-12.148
-12.32
-12.499
-12.683
-12.866
-13.045
-13.215
-13.373
-13.514
-13.636
-13.734
-13.805
-13.847
-13.858
-13.837
-13.782
-13.692
-13.565
-13.399
-13.193
-12.945
-12.655
-12.321
-11.941
-11.517
-11.048
-10.539
-9.993
-9.416
-8.81
-8.181
-7.535
-6.877
-6.21
-5.537
-4.861
-4.183
-3.511
-2.85
-2.208
-1.592
-1.008
-0.463
0.038
0.488
0.886
1.231
1.524
1.76
1.935
2.037
2.047
1.948
1.731
1.391
0.927
0.344
-0.352
-1.145
-2.007
-2.914
-3.842
-4.77
-5.679
-6.548
-7.363
-8.096
-8.71
-9.169
-9.457
-9.58
-9.557
-9.419
-9.186
-8.873
-8.55
-8.304
-8.238
-8.471
-9.106
-10.204
-11.857
-14.21
-17.28
-20.998
-25.172
-29.361
-33.192
-36.413
-38.668
-39.679
-39.541
-38.551
-37.31
-36.887
-38.041
-41.298
-47.386
-56.448
-67.683
-79.709
-90.552
-97.74
-98.986
-92.213
-75.142
-46.151
-6.386
41.874
97.33
156.926
219.439
283.612
341.335
386.077
411.692
412.024
390.329
350.646
297.208
236.871
171.486
103.537
36.889
-25.938
-79.876
-121.107
-148.779
-162.699
-164.509
-157.072
-142.643
-124.015
-104.776
-87.291
-72.877
-62.337
-55.414
-51.352
-49.581
-49.032
-48.127
-46.03
-42.448
-37.328
-31.135
-24.337
-17.214
-10.267
-4.125
0.894
4.659
7.192
8.745
9.505
9.593
9.207
8.543
7.768
7.063
6.537
6.23
6.187
6.443
7.018
7.942
9.217
10.815
12.709
14.86
17.235
19.804
22.528
25.364
28.261
31.159
34.017
36.811
39.523
42.143
44.667
47.086
49.402
51.631
53.784
55.869
57.89
59.847
61.741
63.581
65.372
67.121
68.83
70.499
72.125
73.706
75.239
76.717
78.133
79.475
80.735
81.905
82.98
83.953
84.819
85.571
86.203
86.709
87.083
87.32
87.414
87.356
87.141
86.766
86.226
85.519
84.641
83.592
82.371
80.98
79.42
77.693
75.802
73.752
71.546
69.191
66.694
64.06
61.299
58.418
55.428
52.337
49.157
45.898
42.571
39.187
35.758
32.295
28.811
25.318
21.826
18.35
14.9
11.489
8.129
4.831
1.605
-1.54
