ecg_data_columns
298.792
154.43
64.558
27.868
29.808
39.656
40.158
27.914
5.769
-15.355
-30.254
-40.604
-49.034
-59.15
-71.812
-85.281
-97.599
-106.912
-112.566
-114.797
-114.012
-110.902
-106.173
-100.395
-94.211
-88.216
-82.662
-77.588
-72.908
-68.358
-63.686
-58.722
-53.281
-47.19
-40.37
-32.759
-24.327
-15.142
-5.302
5.06
15.724
26.495
37.203
47.651
57.665
67.066
75.659
83.307
89.935
95.484
99.924
103.253
105.477
106.682
107.025
106.671
105.811
104.605
103.163
101.603
100.037
98.557
97.251
96.167
95.307
94.68
94.292
94.121
94.136
94.258
94.354
94.316
94.054
93.498
92.62
91.388
89.778
87.79
85.442
82.761
79.79
76.559
73.089
69.415
65.582
61.65
57.7
53.793
49.972
46.275
42.727
39.347
36.153
33.148
30.319
27.66
25.162
22.824
20.649
18.637
16.779
15.068
13.493
12.044
10.717
9.503
8.395
7.385
6.468
5.639
4.899
4.243
3.666
3.162
2.721
2.337
2.001
1.706
1.442
1.199
0.971
0.751
0.535
0.318
0.094
-0.141
-0.392
-0.662
-0.956
-1.276
-1.628
-2.015
-2.441
-2.907
-3.417
-3.972
-4.575
-5.226
-5.926
-6.675
-7.472
-8.315
-9.205
-10.139
-11.116
-12.13
-13.179
-14.259
-15.365
-16.493
-17.634
-18.779
-19.919
-21.048
-22.155
-23.232
-24.269
-25.258
-26.194
-27.071
-27.886
-28.632
-29.305
-29.897
-30.402
-30.812
-31.119
-31.315
-31.393
-31.349
-31.185
-30.906
-30.514
-30.012
-29.394
-28.652
-27.78
-26.778
-25.642
-24.373
-22.981
-21.49
-19.939
-18.377
-16.846
-15.376
-13.992
-12.712
-11.557
-10.552
-9.717
-9.069
-8.626
-8.407
-8.425
-8.686
-9.153
-9.74
-10.345
-10.84
-11.128
-11.157
-10.855
-10.143
-8.945
-7.162
-4.727
-1.644
2.156
6.798
12.244
18.351
24.729
30.652
35.476
38.685
39.698
38.153
34.136
27.953
20.594
13.69
8.627
6.713
9.044
15.605
25.388
36.903
47.472
53.463
51.319
37.101
7.371
-37.682
-94.989
-161.637
-234.317
-313.003
-399.717
-489.461
-570.955
-627.285
-640.894
-605.403
-527.31
-423.235
-311.542
-204.166
-105.375
-13.278
72.882
149.847
212.766
256.874
280.84
286.982
278.708
259.364
231.899
199.656
166.496
135.532
108.822
87.278
70.779
59.437
53.701
52.828
55.232
59.408
63.702
67.21
69.903
71.333
70.723
68.021
63.616
58.211
53.001
48.588
44.959
42.282
40.731
40.302
40.918
42.187
43.429
44.27
44.607
44.362
43.555
42.19
40.223
37.676
34.652
31.224
27.417
23.281
18.863
14.148
9.127
4.047
-0.817
-5.569
-10.188
-14.628
-19.348
-23.097
-24.671
-25.812
-27.063
-31.608
-43.244
-57.77
-72.382
-82.914
-83.632
-79.57
-74.973
-72.724
-77.638
-86.221
-94.943
-103.033
-108.35
-112.144
-116.029
-119.695
-123.347
-126.889
-129.99
-132.871
-135.736
-138.58
-141.48
-144.563
-147.88
-151.448
-155.26
-159.226
-163.244
-167.239
-171.091
-174.697
-177.981
-180.861
-183.291
-185.229
-186.592
-187.284
-187.167
-186.076
-183.905
-180.592
-176.099
-170.471
-163.781
-156.142
-147.744
-138.745
-129.268
-119.429
-109.302
-98.953
-88.487
-78.007
-67.635
-57.532
-47.819
-38.591
-29.938
-21.887
-14.43
-7.528
-1.078
5.008
10.783
16.286
21.531
26.514
31.253
35.76
40.038
44.122
48.038
51.806
55.456
58.991
62.395
65.641
68.676
71.447
73.929
76.1
77.955
79.498
80.735
81.676
82.346
82.76
82.931
82.869
82.578
82.068
81.357
80.462
79.407
78.216
76.908
75.503
74.018
72.466
70.859
69.206
67.509
65.775
64.01
62.221
60.417
58.608
56.801
55.003
53.222
51.467
49.741
48.049
46.395
44.781
43.208
41.68
40.197
38.761
37.374
36.035
34.745
33.506
32.318
31.18
30.092
29.054
28.064
27.123
26.231
25.386
24.589
23.84
23.138
22.484
21.878
21.318
20.805
20.335
19.909
19.524
19.18
18.874
18.605
18.373
18.175
18.012
17.882
17.783
17.714
17.671
17.652
17.654
17.676
17.713
17.762
17.822
17.888
17.958
18.028
18.095
18.154
18.201
18.232
18.244
18.231
18.191
18.12
18.015
17.874
17.698
17.483
17.229
16.935
16.599
16.223
15.806
15.349
14.851
14.314
13.741
13.139
12.513
11.873
11.223
10.572
9.93
9.306
8.707
8.138
7.602
7.105
6.655
6.258
5.926
5.664
5.483
5.392
5.399
5.51
5.727
6.051
6.475
6.997
7.618
8.341
9.182
10.151
11.253
12.493
13.867
15.362
16.962
18.64
20.352
22.067
23.747
25.363
26.895
28.312
29.594
30.723
31.654
32.347
32.773
32.91
32.776
32.41
31.842
31.115
30.289
29.423
28.632
28.026
27.698
27.762
28.257
29.253
30.94
33.361
36.424
39.897
43.225
45.871
47.554
47.827
46.158
42.516
37.069
30.479
24.313
19.805
17.775
19.338
25.156
34.732
47.03
59.893
69.586
72.96
67.198
48.616
14.719
-34.92
-99.981
-176.741
-259.171
-343.65
-424.721
-498.363
-561.859
-606.235
-625.227
-612.556
-562.916
-484.193
-385.354
-276.261
-169.345
-67.374
27.173
108.836
174.952
221.56
246.669
252.657
242.554
219.345
186.604
148.833
110.936
76.925
48.988
27.593
12.392
3.446
0.849
3.314
8.432
13.792
17.99
20.69
22.045
21.891
19.641
15.32
9.852
4.494
0.083
-3.168
-5.437
-6.884
-7.349
-6.772
-5.496
-4.086
-3.045
-2.618
-2.808
-3.539
-4.832
-6.751
-9.293
-12.386
-15.913
-19.785
-23.977
-28.485
-33.296
-38.362
-43.611
-48.979
-54.432
-59.952
-65.536
-71.184
-76.896
-82.672
-88.523
-94.455
-100.474
-106.583
-112.775
-119.044
-125.384
-131.791
-138.267
-144.81
-151.412
-158.058
-164.73
-171.403
-178.055
-184.657
-191.178
-197.585
-203.849
-209.941
-215.832
-221.495
-226.9
-232.018
-236.819
-241.276
-245.357
-249.034
-252.279
-255.065
-257.368
-259.166
-260.439
-261.17
-261.343
-260.946
-259.968
-258.402
-256.244
-253.492
-250.147
-246.212
-241.696
-236.608
-230.963
-224.776
-218.068
-210.861
-203.181
-195.054
-186.512
-177.586
-168.309
-158.716
-148.844
-138.73
-128.413
-117.932
-107.327
-96.638
-85.905
-75.168
-64.466
-53.837
-43.318
-32.945
-22.751
-12.768
-3.028
6.443
15.617
24.47
32.982
41.131
48.903
56.283
63.259
69.823
75.968
81.692
86.993
91.873
96.333
100.381
104.022
107.267
110.125
112.61
114.734
116.514
117.965
119.105
119.952
120.524
120.84
120.92
120.782
120.446
119.93
119.255
118.437
117.495
116.448
115.31
114.1
112.831
111.518
110.173
108.81
107.439
106.069
104.711
103.372
102.06
100.781
99.542
98.346
97.198
96.101
95.057
94.067
93.132
92.252
91.425
90.65
89.926
89.251
88.622
88.037
87.493
86.986
86.514
86.073
85.658
85.267
84.896
84.542
84.201
83.872
83.551
83.238
82.93
82.626
82.324
82.023
81.72
81.416
81.108
80.795
80.477
80.154
79.825
79.49
79.152
78.809
78.463
78.114
77.763
77.412
77.059
76.706
76.352
75.998
75.645
75.294
74.945
74.598
74.253
73.908
73.563
73.217
72.866
72.508
72.139
71.757
71.359
70.943
70.506
70.043
69.552
69.029
68.473
67.88
67.246
66.568
65.842
65.067
64.242
63.364
62.433
61.448
60.412
59.327
58.196
57.022
55.81
54.563
53.287
51.988
50.673
49.344
48.007
46.668
45.336
44.021
42.73
41.474
40.263
39.11
38.027
37.029
36.12
35.3
34.573
33.944
33.424
33.033
32.775
32.651
32.667
32.826
33.126
33.561
34.096
34.681
35.277
35.852
36.393
36.897
37.34
37.696
37.939
38.038
37.99
37.802
37.446
36.907
36.201
35.372
34.537
33.844
33.384
33.228
33.418
33.976
34.947
36.379
38.325
40.832
43.908
47.599
51.986
57.062
62.744
68.674
74.138
78.414
80.828
80.695
77.748
71.944
63.152
52.354
41.426
31.815
25.559
23.263
22.386
22.544
24.73
29.989
42.037
56.905
62.511
46.985
-0.479
-77.655
-171.507
-269.095
-361.195
-450.833
-541.706
-631.094
-708.396
-749.644
-737.582
-665.675
-538.828
-381.216
-218.057
-72.643
37.442
111.447
155.747
182.276
203.054
221.038
234.316
237.633
227.507
206.306
179.411
153.282
131.773
115.424
103.558
94.964
88.704
84.015
79.615
74.021
66.558
57.289
46.586
35.099
23.385
11.889
1.277
-7.721
-14.746
-19.692
-22.599
-23.755
-23.429
-21.887
-19.543
-16.775
-13.895
-11.196
-8.845
-6.933
-5.565
-4.795
-4.647
-5.179
-6.406
-8.355
-11.11
-14.678
-19.02
-24.061
-29.643
-35.631
-41.927
-48.41
-54.985
-61.593
-68.183
-74.749
-81.332
-87.938
-94.566
-101.202
-107.791
-114.298
-120.716
-127.025
-133.219
-139.288
-145.205
-150.976
-156.636
-162.199
-167.671
-173.044
-178.28
-183.375
-188.369
-193.285
-198.15
-202.995
-207.837
-212.741
-217.816
-223.144
-228.79
-234.768
-241.026
-247.518
-254.2
-260.994
-267.813
-274.523
-280.928
-286.88
-292.267
-296.966
-300.87
-303.816
-305.579
-305.982
-304.9
-302.253
-298.036
-292.252
-284.905
-276.071
-265.876
-254.497
-242.173
-229.09
-215.382
-201.19
-186.65
-171.933
-157.263
-142.818
-128.725
-115.094
-101.997
-89.5
-77.675
-66.529
-56.018
-46.071
-36.576
-27.466
-18.718
-10.307
-2.214
5.593
13.165
20.526
27.668
34.592
41.292
47.77
54.033
60.061
65.807
71.219
76.238
80.824
84.966
88.654
91.884
94.659
96.982
98.872
100.364
101.483
102.25
102.688
102.812
102.648
102.232
101.597
100.776
99.799
98.694
97.487
96.203
94.865
93.491
92.095
90.689
89.286
87.902
86.55
85.244
83.998
82.822
81.727
80.725
79.822
79.023
78.332
77.75
77.276
76.911
76.652
76.496
76.439
76.477
76.605
76.819
77.112
77.477
77.908
78.397
78.936
79.518
80.136
80.782
81.448
82.13
82.821
83.516
84.209
84.895
85.57
86.228
86.866
87.48
88.066
88.621
89.143
89.632
90.086
90.506
90.893
91.248
91.572
91.868
92.136
92.38
92.602
92.804
92.988
93.159
93.319
93.473
93.623
93.774
93.928
94.09
94.261
94.446
94.647
94.864
95.102
95.36
95.64
95.942
96.266
96.61
96.973
97.352
97.746
98.151
98.562
98.975
99.388
99.793
100.188
100.567
100.923
101.253
101.551
101.812
102.029
102.197
102.312
102.367
102.358
102.281
102.131
101.904
101.595
101.2
100.718
100.146
99.481
98.72
97.866
96.921
95.89
94.779
93.595
92.346
91.04
89.688
88.299
86.88
85.435
83.969
82.492
81.013
79.542
78.092
76.67
75.288
73.958
72.691
71.495
70.373
69.321
68.344
67.45
66.651
65.972
65.43
65.033
64.793
64.713
64.785
64.999
65.326
65.717
66.138
66.559
66.954
67.311
67.605
67.8
67.87
67.773
67.472
66.946
66.178
65.181
64.011
62.736
61.44
60.229
59.187
58.425
58.063
58.187
58.888
60.221
62.256
65.159
69.013
73.747
79.104
84.603
89.781
94.327
97.786
99.533
99.309
97.175
93.804
90.513
88.066
87.077
88.648
93.478
101.713
111.762
119.159
120.809
116.036
106.159
95.371
80.912
54.22
7.854
-65.459
-160.248
-261.038
-355.809
-435.477
-500.017
-554.264
-595.655
-613.301
-592.275
-524.424
-413.31
-275.3
-134.989
-8.872
93.786
169.668
225.278
263.681
286.369
296.523
291.87
272.7
242.274
203.779
164.036
128.441
98.847
76.373
60.705
51.228
48.068
49.937
54.121
58.324
61.222
62.363
61.923
59.802
55.417
48.867
41.211
33.74
27.333
22.235
18.263
15.308
13.56
13.097
13.593
14.417
15.017
15.132
14.731
13.889
12.584
10.721
8.28
5.34
2.01
-1.624
-5.529
-9.733
-14.239
-19.01
-23.986
-29.08
-34.237
-39.435
-44.663
-49.919
-55.205
-60.516
-65.854
-71.242
-76.697
-82.231
-87.851
-93.548
-99.316
-105.16
-111.087
-117.107
-123.222
-129.427
-135.71
-142.059
-148.458
-154.89
-161.332
-167.753
-174.128
-180.429
-186.632
-192.712
-198.643
-204.397
-209.945
-215.259
-220.311
-225.069
-229.505
-233.588
-237.289
-240.581
-243.439
-245.837
-247.753
-249.168
-250.062
-250.422
-250.233
-249.486
-248.172
-246.285
-243.823
-240.787
-237.181
-233.01
-228.284
-223.017
-217.224
-210.924
-204.138
-196.891
-189.209
-181.12
-172.655
-163.846
-154.728
-145.336
-135.706
-125.878
-115.89
-105.784
-95.598
-85.374
-75.152
-64.971
-54.869
-44.884
-35.052
-25.406
-15.979
-6.803
2.094
10.686
18.948
26.858
34.396
41.547
48.294
54.628
60.54
66.022
71.073
75.692
79.879
83.638
86.976
89.901
92.422
94.551
96.302
97.691
98.734
99.449
99.855
99.972
99.82
99.421
98.796
97.965
96.95
95.773
94.453
93.011
91.467
89.84
88.15
86.415
84.651
82.875
81.102
79.345
77.618
75.931
74.294
72.718
71.21
69.777
68.425
67.16
65.985
64.904
63.92
63.033
62.244
61.554
60.961
60.464
60.062
59.753
59.535
59.406
59.364
59.405
59.527
59.727
60
60.343
60.752
61.223
61.751
62.332
62.963
63.639
64.357
65.113
65.905
66.727
67.576
68.45
69.341
70.247
71.162
72.082
73.002
73.918
74.826
75.719
76.595
77.448
78.272
79.064
79.815
80.52
81.173
81.768
82.3
82.763
83.152
83.462
83.69
83.832
83.885
83.845
83.71
83.476
83.14
82.701
82.16
81.513
80.763
79.91
78.959
77.918
76.795
75.596
74.328
73.002
71.625
70.208
68.757
67.277
65.773
64.253
62.727
61.206
59.704
58.232
56.801
55.427
54.119
52.888
51.74
50.675
49.695
48.811
48.035
47.39
46.897
46.569
46.416
46.441
46.632
46.97
47.423
47.937
48.469
48.983
49.445
49.838
50.139
50.319
50.36
50.23
49.894
49.335
48.539
47.518
46.343
45.099
43.889
42.85
42.072
41.665
41.76
42.454
43.864
46.087
49.124
53.048
57.987
63.918
70.706
77.991
85.075
91.355
96.41
99.714
100.887
99.896
96.88
92.674
88.754
86.29
86.22
89.226
95.096
102.925
111.424
118.069
119.499
112.713
94.68
63.077
17.53
-41.128
-111.186
-188.893
-269.062
-346.362
-414.538
-467.206
-500.261
-510.841
-496.495
-459.075
-402.493
-328.913
-243.802
-150.885
-52.086
42.567
124.473
185.943
219.665
230.774
225.804
211.234
195.209
177.947
160.332
144.498
129.923
118.839
112.404
109.199
108.55
108.879
107.924
104.881
99.525
91.81
82.428
72.117
61.371
50.88
41.411
33.345
26.84
21.91
18.3
15.777
14.184
13.299
12.896
12.796
12.811
12.757
12.51
11.966
11.033
9.661
7.809
5.447
2.573
-0.783
-4.583
-8.785
-13.35
-18.252
-23.457
-28.918
-34.575
-40.361
-46.224
-52.134
-58.072
-64.023
-69.98
-75.936
-81.899
-87.891
-93.928
-100.019
-106.166
-112.364
-118.61
-124.906
-131.252
-137.646
-144.079
-150.538
-157.007
-163.472
-169.912
-176.305
-182.623
-188.836
-194.915
-200.832
-206.56
-212.073
-217.341
-222.336
-227.032
-231.4
-235.415
-239.051
-242.28
-245.078
-247.422
-249.291
-250.665
-251.529
-251.868
-251.668
-250.922
-249.622
-247.764
-245.348
-242.375
-238.849
-234.777
-230.169
-225.038
-219.398
-213.267
-206.664
-199.612
-192.134
-184.259
-176.013
-167.429
-158.537
-149.372
-139.969
-130.364
-120.594
-110.695
-100.704
-90.661
-80.601
-70.563
-60.582
-50.693
-40.931
-31.328
-21.915
-12.721
-3.774
4.902
13.284
21.35
29.082
36.464
43.48
50.12
56.372
62.229
67.685
72.737
77.383
81.625
85.466
88.91
91.965
94.641
96.948
98.899
100.507
101.787
102.755
103.428
103.824
103.96
103.856
103.53
103.002
102.289
101.412
100.388
99.235
97.971
96.611
95.173
93.671
92.121
90.536
88.931
87.318
85.709
84.115
82.547
81.015
79.527
78.089
76.709
75.391
74.14
72.96
71.852
70.819
69.861
68.981
68.177
67.449
66.796
66.216
65.708
65.27
64.9
64.596
64.356
64.178
64.059
63.999
63.994
64.043
64.144
64.293
64.489
64.728
65.006
65.322
65.671
66.052
66.46
66.895
67.352
67.831
68.328
68.842
69.37
69.909
70.457
71.011
71.567
72.124
72.678
73.225
73.763
74.288
74.795
75.281
75.741
76.17
76.562
76.913
77.217
77.469
77.665
77.802
77.877
77.887
77.83
77.705
77.511
77.247
76.912
76.507
76.03
75.482
74.864
74.178
73.428
72.619
71.759
70.856
69.917
68.951
67.968
66.975
65.98
64.988
64.003
63.033
62.087
61.172
60.298
59.473
58.705
58.003
57.372
56.815
56.335
55.93
55.599
55.344
55.173
55.097
55.136
55.309
55.62
56.075
56.678
57.421
58.294
59.275
60.321
61.395
62.462
63.481
64.424
65.257
65.935
66.415
66.634
66.539
66.12
65.374
64.299
62.909
61.201
59.21
57.07
54.926
52.928
51.249
49.984
49.281
49.404
50.441
52.352
54.963
57.754
60.26
62.278
63.393
63.11
61.465
58.664
55.416
53.356
53.609
56.759
63.719
74.979
89.931
107.435
124.967
138.435
144.769
141.343
124.707
92.622
44.387
-19.94
-96.302
-178.778
-264.552
-348.704
-427.866
-500.048
-555.866
-588.772
-592.992
-562.314
-502.459
-420.799
-325.308
-226.591
-127.363
-29.543
62.783
146.1
214.173
262.902
291.911
301.952
295.357
274.259
240.987
200.248
157.187
115.719
79.084
48.903
25.888
11.453
6.059
8.031
15.046
24.704
34.475
43.133
49.983
53.632
53.388
49.591
42.957
34.798
26.66
19.187
12.678
7.664
4.259
2.382
1.86
2.038
2.178
1.946
1.17
-0.241
-2.221
-4.781
-7.957
-11.631
-15.675
-20.01
-24.583
-29.403
-34.501
-39.855
-45.415
-51.116
-56.9
-62.745
-68.644
-74.594
-80.595
-86.639
-92.724
-98.866
-105.071
-111.339
-117.666
-124.036
-130.434
-136.857
-143.304
-149.773
-156.263
-162.762
-169.254
-175.723
-182.148
-188.504
-194.767
-200.908
-206.896
-212.707
-218.314
-223.693
-228.82
-233.666
-238.205
-242.412
-246.26
-249.723
-252.775
-255.391
-257.55
-259.229
-260.412
-261.082
-261.224
-260.826
-259.881
-258.381
-256.323
-253.705
-250.53
-246.801
-242.527
-237.716
-232.382
-226.54
-220.209
-213.408
-206.161
-198.494
-190.433
-182.008
-173.251
-164.194
-154.871
-145.317
-135.568
-125.662
-115.636
-105.527
-95.374
-85.216
-75.09
-65.033
-55.081
-45.27
-35.633
-26.2
-17.003
-8.068
0.579
8.915
16.921
24.577
31.868
38.781
45.306
51.435
57.162
62.484
67.401
71.914
76.027
79.746
83.08
86.036
88.628
90.867
92.768
94.346
95.618
96.602
97.316
97.78
98.015
98.039
97.875
97.543
97.064
96.457
95.742
94.939
94.064
93.136
92.17
91.18
90.181
89.186
88.205
87.248
86.326
85.445
84.612
83.832
83.112
82.453
81.858
81.33
80.869
80.476
80.149
79.888
79.69
79.554
79.475
79.449
79.473
79.542
79.649
79.789
79.957
80.146
80.35
80.563
80.781
80.998
81.21
81.413
81.603
81.776
81.931
82.065
82.176
82.263
82.325
82.363
82.375
82.364
82.329
82.271
82.193
82.096
81.983
81.854
81.712
81.559
81.399
81.234
81.068
80.905
80.748
80.601
80.468
80.355
80.263
80.197
80.159
80.151
80.174
80.231
80.321
80.446
80.604
80.796
81.019
81.271
81.552
81.856
82.18
82.519
82.869
83.225
83.581
83.932
84.271
84.594
84.894
85.167
85.406
85.606
85.76
85.862
85.907
85.89
85.803
85.642
85.404
85.086
84.691
84.218
83.671
83.051
82.363
81.612
80.803
79.939
79.022
78.054
77.039
75.985
74.903
73.801
72.687
71.57
70.461
69.371
68.31
67.282
66.284
65.321
64.398
63.534
62.755
62.081
61.524
61.093
60.794
60.629
60.594
60.666
60.806
60.976
61.146
61.299
61.428
61.514
61.529
61.429
61.163
60.7
60.015
59.094
57.947
56.597
55.097
53.543
52.046
50.712
49.664
49
48.81
49.213
50.28
52.103
54.872
58.648
63.371
68.883
74.737
80.407
85.574
89.813
92.462
93.164
91.885
88.96
85.588
83.148
82.306
83.51
87.689
95.379
105.998
118.48
129.117
131.914
124.381
105.619
75.583
39.477
-1.425
-51.362
-113.325
-195.54
-303.827
-432.199
-568.298
-691.333
-775.449
-801.59
-763.745
-666.101
-523.113
-358.404
-189.953
-34.739
89.785
180.355
236.41
262.76
275.701
282.942
287.076
288.307
279.004
256.752
225.099
188.527
152.988
121.72
95.339
73.906
57.351
46.283
40.633
39.108
40.703
44.248
48.215
51.984
54.874
55.673
54.029
50.242
44.552
37.789
31.079
24.844
19.428
15.317
12.535
10.952
10.406
10.361
10.201
9.639
8.506
6.7
4.276
1.241
-2.396
-6.523
-11.012
-15.785
-20.796
-26.033
-31.5
-37.157
-42.933
-48.771
-54.631
-60.493
-66.357
-72.225
-78.099
-83.986
-89.907
-95.879
-101.91
-108.003
-114.151
-120.346
-126.587
-132.876
-139.213
-145.6
-152.035
-158.508
-165.008
-171.517
-178.012
-184.47
-190.859
-197.153
-203.322
-209.341
-215.182
-220.819
-226.224
-231.368
-236.225
-240.766
-244.96
-248.778
-252.192
-255.174
-257.701
-259.749
-261.295
-262.322
-262.812
-262.751
-262.127
-260.932
-259.157
-256.798
-253.855
-250.329
-246.224
-241.549
-236.314
-230.534
-224.224
-217.407
-210.105
-202.344
-194.152
-185.56
-176.601
-167.309
-157.721
-147.875
-137.808
-127.561
-117.174
-106.689
-96.146
-85.587
-75.052
-64.581
-54.213
-43.984
-33.931
-24.088
-14.487
-5.158
3.871
12.573
20.925
28.906
36.497
43.683
50.45
56.789
62.691
68.154
73.173
77.751
81.891
85.598
88.88
91.747
94.212
96.288
97.992
99.34
100.352
101.046
101.444
101.567
101.436
101.075
100.506
99.751
98.832
97.771
96.59
95.31
93.952
92.534
91.075
89.594
88.107
86.629
85.174
83.755
82.385
81.072
79.826
78.655
77.564
76.559
75.643
74.818
74.086
73.446
72.898
72.438
72.066
71.775
71.562
71.423
71.35
71.338
71.381
71.472
71.604
71.77
71.963
72.177
72.406
72.641
72.879
73.111
73.334
73.543
73.732
73.897
74.037
74.147
74.226
74.273
74.287
74.267
74.214
74.13
74.017
73.875
73.709
73.521
73.314
73.093
72.862
72.624
72.386
72.15
71.923
71.707
71.508
71.33
71.176
71.051
70.956
70.894
70.867
70.877
70.926
71.014
71.14
71.306
71.509
71.748
72.02
72.323
72.651
73.001
73.367
73.745
74.126
74.506
74.878
75.235
75.571
75.88
76.155
76.39
76.579
76.715
76.794
76.812
76.763
76.644
76.453
76.191
75.86
75.463
75.002
74.482
73.906
73.282
72.615
71.91
71.167
70.391
69.588
68.767
67.938
67.113
66.297
65.501
64.736
64.014
63.344
62.731
62.172
61.672
61.24
60.89
60.645
60.52
60.523
60.658
60.927
61.326
61.846
62.465
63.141
63.841
64.538
65.207
65.838
66.407
66.879
67.22
67.385
67.341
67.065
66.546
65.796
64.844
63.739
62.544
61.34
60.211
59.264
58.603
58.32
58.521
59.257
60.594
62.698
65.606
69.223
73.352
77.526
81.266
84.371
86.563
87.311
86.408
83.916
80.185
76.378
73.631
72.281
72.525
75.062
80.224
87.408
95.672
101.577
99.729
88.334
67.121
36.749
3.13
-32.304
-74.177
-126.345
-198.526
-297.249
-416.411
-543.892
-658.577
-734.862
-755.354
-713.583
-613.537
-471.719
-311.011
-151.623
-13.235
92.235
164.291
206.564
229.807
244.333
252.669
254.376
245.794
224.813
195.246
163.235
134.581
112.509
97.352
88.026
82.937
80.77
79.83
78.005
74.149
67.979
59.7
50.049
39.7
29.128
19.09
10.441
3.609
-1.301
-4.436
-6.188
-6.844
-6.597
-5.735
-4.549
-3.297
-2.249
-1.556
-1.274
-1.471
-2.194
-3.472
-5.349
-7.821
-10.837
-14.352
-18.316
-22.685
-27.432
-32.51
-37.859
-43.41
-49.085
-54.833
-60.629
-66.454
-72.298
-78.159
-84.032
-89.929
-95.879
-101.904
-108.014
-114.217
-120.51
-126.892
-133.372
-139.951
-146.628
-153.397
-160.244
-167.156
-174.114
-181.099
-188.086
-195.044
-201.939
-208.738
-215.412
-221.929
-228.259
-234.37
-240.228
-245.804
-251.067
-255.985
-260.527
-264.661
-268.358
-271.586
-274.322
-276.538
-278.213
-279.325
-279.857
-279.793
-279.124
-277.838
-275.931
-273.398
-270.241
-266.463
-262.07
-257.073
-251.485
-245.321
-238.603
-231.352
-223.594
-215.359
-206.676
-197.578
-188.102
-178.284
-168.162
-157.775
-147.166
-136.374
-125.444
-114.419
-103.341
-92.255
-81.203
-70.226
-59.366
-48.662
-38.152
-27.87
-17.852
-8.127
1.274
10.325
19.003
27.285
35.153
42.591
49.587
56.131
62.216
67.838
72.996
77.691
81.928
85.713
89.055
91.965
94.455
96.542
98.24
99.569
100.548
101.199
101.543
101.602
101.402
100.964
100.314
99.476
98.472
97.326
96.062
94.7
93.263
91.77
90.241
88.694
87.146
85.611
84.103
82.636
81.219
79.862
78.573
77.359
76.225
75.174
74.211
73.335
72.548
71.849
71.236
70.706
70.256
69.881
69.576
69.336
69.155
69.025
68.94
68.893
68.878
68.886
68.911
68.947
68.988
69.027
69.06
69.083
69.092
69.084
69.057
69.009
68.94
68.851
68.74
68.611
68.464
68.302
68.127
67.943
67.754
67.563
67.374
67.192
67.021
66.864
66.727
66.612
66.526
66.47
66.451
66.47
66.532
66.64
66.797
67.004
67.262
67.573
67.934
68.345
68.803
69.305
69.846
70.423
71.029
71.66
72.308
72.968
73.632
74.291
74.937
75.564
76.161
76.721
77.235
77.695
78.095
78.428
78.689
78.873
78.975
78.99
78.915
78.747
78.483
78.121
77.66
77.101
76.444
75.694
74.857
73.942
72.957
71.913
70.822
69.696
68.547
67.384
66.218
65.056
63.907
62.783
61.692
60.649
59.667
58.761
57.943
57.225
56.613
56.115
55.735
55.469
55.316
55.276
55.355
55.573
55.948
56.487
57.196
58.067
59.084
60.229
61.474
62.77
64.071
65.329
66.502
67.574
68.534
69.372
70.061
70.548
70.784
70.745
70.433
69.877
69.105
68.146
67.051
65.903
64.82
63.932
63.351
63.16
63.415
64.12
65.355
67.294
69.969
73.27
76.882
80.22
82.798
84.32
84.356
82.389
78.251
72.054
64.568
57.365
51.784
48.803
49.348
53.859
61.97
72.752
83.894
91.787
93.176
84.84
63.661
27.713
-23.962
-89.765
-164.429
-241.953
-316.295
-385.787
-453.298
-518.149
-577.717
-619.626
-623.104
-574.797
-466.572
-307.752
-126.552
46.899
181.171
260.531
290.043
285.044
269.323
257.165
250.038
243.618
228.3
201.416
167.342
130.828
97.302
69.493
47.391
31.109
20.815
15.831
15.074
17.636
22.694
29.318
36.424
42.891
47.487
49.668
49.603
47.471
43.558
38.401
32.731
27.186
22.356
18.523
15.577
13.391
11.787
10.45
9.012
7.208
4.866
1.932
-1.509
-5.39
-9.647
-14.191
-18.932
-23.804
-28.763
-33.788
-38.873
-44.01
-49.182
-54.378
-59.588
-64.813
-70.06
-75.34
-80.667
-86.052
-91.503
-97.027
-102.62
-108.281
-114.009
-119.804
-125.67
-131.608
-137.612
-143.68
-149.809
-155.991
-162.209
-168.443
-174.661
-180.834
-186.94
-192.952
-198.848
-204.599
-210.175
-215.55
-220.702
-225.6
-230.213
-234.499
-238.404
-241.891
-244.937
-247.53
-249.667
-251.345
-252.553
-253.295
-253.587
-253.43
-252.815
-251.714
-250.066
-247.839
-245.02
-241.616
-237.662
-233.17
-228.123
-222.506
-216.299
-209.481
-202.047
-193.962
-185.158
-175.623
-165.387
-154.539
-143.237
-131.601
-119.71
-107.632
-95.406
-83.096
-70.801
-58.604
-46.577
-34.811
-23.387
-12.434
-2.136
7.403
16.147
24.126
31.46
38.225
44.45
50.168
55.396
60.164
64.524
68.5
72.088
75.316
78.224
80.894
83.466
86.015
88.559
91.077
93.482
95.721
97.781
99.635
101.262
102.645
103.77
104.649
105.33
105.834
106.166
106.312
106.226
105.894
105.331
104.565
103.649
102.622
101.509
100.344
99.167
98.003
96.873
95.783
94.718
93.672
92.651
91.663
90.724
89.841
89.014
88.245
87.53
86.867
86.254
85.685
85.15
84.644
84.163
83.708
83.283
82.891
82.532
82.207
81.916
81.66
81.439
81.252
81.096
80.969
80.871
80.801
80.759
80.745
80.759
80.8
80.869
80.966
81.089
81.238
81.411
81.607
81.823
82.057
82.306
82.567
82.837
83.113
83.391
83.669
83.943
84.211
84.467
84.708
84.929
85.125
85.293
85.428
85.524
85.579
85.588
85.549
85.459
85.315
85.114
84.856
84.536
84.153
83.707
83.196
82.62
81.98
81.278
80.516
79.701
78.841
77.943
77.015
76.065
75.104
74.14
73.182
72.236
71.304
70.393
69.509
68.657
67.849
67.091
66.394
65.768
65.221
64.76
64.391
64.116
63.933
63.842
63.845
63.95
64.173
64.532
65.029
65.67
66.453
67.356
68.36
69.428
70.509
71.56
72.54
73.411
74.157
74.756
75.188
75.442
75.478
75.258
74.774
74.027
73.037
71.879
70.614
69.33
68.158
67.193
66.545
66.335
66.634
67.526
69.083
71.302
74.262
78.09
82.725
88.001
93.565
98.8
103.216
106.441
107.94
107.281
104.378
99.394
93.139
86.921
81.756
78.519
77.944
80.063
84.329
89.658
93.734
93.681
86.882
70.271
41.475
-0.121
-54.513
-119.064
-189.247
-262.111
-332.893
-398.504
-456.631
-498.618
-518.429
-509.5
-465.925
-395.061
-305.111
-205.081
-106.957
-13.282
73.723
148.969
210.271
254.003
278.031
284.439
276.221
256.722
229.924
200.089
171.115
145.771
125.528
110.502
99.946
93.09
88.94
85.856
82.199
77.047
70.123
61.722
52.479
42.877
33.336
24.484
16.954
11.068
6.875
4.175
2.618
1.932
1.9
2.273
2.791
3.202
3.314
3.028
2.309
1.134
-0.522
-2.691
-5.39
-8.593
-12.252
-16.315
-20.732
-25.467
-30.474
-35.697
-41.074
-46.535
-52.034
-57.546
-63.057
-68.562
-74.062
-79.552
-85.039
-90.544
-96.085
-101.675
-107.322
-113.027
-118.791
-124.621
-130.523
-136.498
-142.541
-148.64
-154.781
-160.948
-167.123
-173.282
-179.399
-185.443
-191.387
-197.202
-202.863
-208.341
-213.61
-218.64
-223.404
-227.874
-232.025
-235.827
-239.254
-242.279
-244.879
-247.031
-248.715
-249.91
-250.601
-250.772
-250.41
-249.506
-248.052
-246.043
-243.477
-240.353
-236.677
-232.454
-227.696
-222.415
-216.627
-210.35
-203.606
-196.419
-188.816
-180.825
-172.477
-163.804
-154.84
-145.621
-136.183
-126.562
-116.797
-106.925
-96.984
-87.013
-77.048
-67.128
-57.288
-47.564
-37.99
-28.598
-19.42
-10.484
-1.819
6.55
14.6
22.311
29.664
36.643
43.235
49.43
55.22
60.601
65.568
70.124
74.27
78.012
81.357
84.315
86.896
89.115
90.986
92.524
93.746
94.671
95.317
95.704
95.852
95.781
95.512
95.066
94.462
93.722
92.866
91.914
90.883
89.792
88.659
87.5
86.329
85.163
84.012
82.89
81.807
80.772
79.792
78.874
78.023
77.242
76.534
75.899
75.337
74.848
74.429
74.077
73.791
73.565
73.396
73.279
73.209
73.18
73.187
73.224
73.287
73.368
73.464
73.569
73.679
73.789
73.897
73.997
74.087
74.164
74.226
74.27
74.295
74.3
74.284
74.249
74.194
74.123
74.037
73.939
73.831
73.717
73.601
73.486
73.375
73.271
73.177
73.095
73.029
72.981
72.953
72.947
72.964
73.006
73.072
73.162
73.275
73.408
73.56
73.728
73.91
74.103
74.303
74.508
74.714
74.918
75.117
75.307
75.484
75.641
75.775
75.882
75.957
75.993
75.988
75.938
75.842
75.701
75.516
75.288
75.018
74.711
74.369
73.996
73.593
73.158
72.692
72.197
71.677
71.14
70.591
70.036
69.482
68.939
68.412
67.905
67.42
66.95
66.494
66.058
65.649
65.291
65.001
64.792
64.677
64.663
64.745
64.916
65.15
65.407
65.653
65.856
65.991
66.047
66.004
65.84
65.533
65.04
64.319
63.34
62.09
60.589
58.884
57.032
55.102
53.192
51.408
49.875
48.69
47.911
47.615
47.851
48.754
50.547
53.282
56.925
61.34
66.134
70.88
75.229
78.515
79.99
79.52
77.084
72.946
68.362
64.646
62.971
65.153
71.097
77.866
83.507
87.181
91.649
102.842
120.492
135.515
130.446
89.151
8.921
-99.95
-215.716
-322.653
-420.531
-510.57
-595.762
-668.261
-702.389
-682.356
-602.419
-467.764
-304.783
-136.951
17.19
138.608
220.843
261.989
265.19
242.391
205.679
167.978
137.007
115.422
104.128
97.608
92.914
88.885
83.118
78.613
76.621
75.79
75.974
74.84
70.859
64.598
56.423
47.172
37.832
28.967
21.178
14.885
10.156
6.867
4.747
3.568
3.153
3.269
3.679
4.15
4.466
4.511
4.218
3.508
2.325
0.622
-1.635
-4.442
-7.769
-11.591
-15.868
-20.562
-25.641
-31.056
-36.751
-42.664
-48.723
-54.876
-61.088
-67.333
-73.597
-79.871
-86.146
-92.429
-98.737
-105.083
-111.475
-117.918
-124.409
-130.948
-137.54
-144.186
-150.888
-157.643
-164.441
-171.269
-178.113
-184.954
-191.773
-198.544
-205.237
-211.824
-218.278
-224.572
-230.68
-236.573
-242.222
-247.596
-252.667
-257.406
-261.782
-265.765
-269.326
-272.435
-275.068
-277.198
-278.804
-279.864
-280.36
-280.276
-279.598
-278.315
-276.42
-273.907
-270.776
-267.026
-262.665
-257.699
-252.141
-246.006
-239.312
-232.08
-224.335
-216.104
-207.418
-198.309
-188.813
-178.969
-168.815
-158.395
-147.75
-136.926
-125.968
-114.922
-103.833
-92.749
-81.713
-70.771
-59.966
-49.34
-38.934
-28.785
-18.931
-9.404
-0.237
8.543
16.91
24.842
32.32
39.328
45.853
51.888
57.424
62.461
66.998
71.04
74.593
77.668
80.279
82.44
84.17
85.491
86.425
86.996
87.23
87.154
86.794
86.18
85.34
84.303
83.096
81.749
80.289
78.743
77.137
75.496
73.843
72.199
70.586
69.021
67.521
66.1
64.772
63.548
62.436
61.444
60.576
59.836
59.226
58.743
58.385
58.149
58.027
58.013
58.098
58.274
58.529
58.855
59.239
59.671
60.139
60.632
61.139
61.649
62.151
62.635
63.091
63.511
63.887
64.211
64.478
64.683
64.822
64.891
64.889
64.815
64.669
64.451
64.165
63.813
63.4
62.932
62.413
61.852
61.256
60.633
59.993
59.343
58.692
58.049
57.422
56.82
56.251
55.723
55.241
54.814
54.446
54.144
53.913
53.755
53.675
53.675
53.756
53.919
54.163
54.488
54.891
55.368
55.917
56.533
57.212
57.945
58.728
59.551
60.407
61.287
62.181
63.08
63.973
64.849
65.7
66.515
67.284
67.997
68.645
69.221
69.716
70.125
70.44
70.655
70.765
70.766
70.657
70.435
70.099
69.648
69.084
68.412
67.637
66.766
65.805
64.761
63.644
62.465
61.231
59.952
58.633
57.282
55.909
54.528
53.148
51.783
50.445
49.147
47.905
46.733
45.637
44.62
43.685
42.837
42.087
41.453
40.947
40.576
40.351
40.277
40.359
40.586
40.931
41.348
41.798
42.246
42.672
43.062
43.39
43.627
43.741
43.702
43.497
43.115
42.527
41.71
40.68
39.508
38.308
37.217
36.341
35.737
35.478
35.672
36.414
37.796
39.901
42.728
46.349
50.963
56.608
63.164
70.334
77.492
83.968
89.251
92.63
93.333
91.182
86.377
79.631
72.346
66.052
62.336
62.803
68.769
79.044
90.054
99.716
105.936
108.168
109.089
103.154
80.779
36.607
-37.397
-137.742
-251.835
-376.571
-504.097
-626.196
-737.841
-817.241
-841.853
-800.201
-684.927
-509.876
-305.396
-99.678
74.849
195.646
261.8
280.839
272.33
259.196
250.105
246.053
241.975
229.712
209.526
186.19
164.022
147.083
135.509
127.403
121.775
117.178
111.921
104.961
95.941
85.427
74.938
65.304
56.179
47.476
39.508
32.591
26.974
22.338
17.642
12.457
7.268
2.395
-1.962
-5.737
-9.16
-12.219
-14.536
-16.002
-16.868
-17.334
-17.644
-17.979
-18.32
-18.746
-19.404
-20.34
-21.558
-23.053
-24.784
-26.739
-28.961
-31.471
-34.308
-37.556
-41.27
-45.497
-50.258
-55.524
-61.244
-67.344
-73.764
-80.444
-87.337
-94.407
-101.623
-108.977
-116.457
-124.048
-131.732
-139.462
-147.191
-154.885
-162.518
-170.043
-177.443
-184.725
-191.818
-198.69
-205.352
-211.747
-217.834
-223.682
-229.312
-234.679
-240.014
-245.508
-250.866
-256.037
-261.169
-265.612
-270.098
-275.721
-280.841
-284.828
-284.982
-276.394
-260.23
-240.067
-222.936
-219.395
-233.102
-258.958
-285.202
-298.085
-288.634
-259.938
-224.59
-193.877
-176.458
-172.236
-172.733
-172.437
-167.765
-158.058
-146.751
-135.299
-123.699
-112.13
-100.072
-87.459
-74.839
-62.407
-50.161
-38.202
-26.582
-15.312
-4.419
6.102
16.299
26.158
35.614
44.632
53.188
61.259
68.83
75.883
82.394
88.353
93.76
98.614
102.918
106.677
109.897
112.59
114.769
116.452
117.659
118.41
118.731
118.646
118.183
117.371
116.24
114.822
113.148
111.249
109.157
106.903
104.518
102.03
99.47
96.864
94.238
91.617
89.024
86.482
84.011
81.628
79.352
77.197
75.175
73.299
71.577
70.018
68.629
67.414
66.377
65.52
64.843
64.347
64.029
63.885
63.911
64.1
64.446
64.94
65.573
66.337
67.221
68.217
69.315
70.505
71.778
73.124
74.536
76.003
77.518
79.073
80.661
82.274
83.908
85.555
87.211
88.87
90.529
92.182
93.823
95.45
97.056
98.636
100.186
101.702
103.178
104.613
106.002
107.344
108.634
109.873
111.057
112.186
113.257
114.269
115.219
116.105
116.926
117.681
118.367
118.982
119.526
119.995
120.389
120.703
120.937
121.086
121.148
121.12
121.001
120.789
120.485
120.086
119.596
119.015
118.346
117.593
116.758
115.844
114.855
113.794
112.666
111.474
110.224
108.92
107.569
106.18
104.762
103.322
101.87
100.415
98.965
97.531
96.121
94.739
93.391
92.082
90.823
89.623
88.491
87.435
86.464
85.585
84.807
84.137
83.574
83.113
82.75
82.483
82.319
82.268
82.34
82.535
82.857
83.308
83.88
84.564
85.33
86.138
86.95
87.734
88.47
89.143
89.728
90.197
90.518
90.657
90.589
90.302
89.76
88.951
87.91
86.688
85.384
84.109
82.923
81.904
81.161
80.78
80.853
81.46
82.599
84.336
86.853
90.188
94.284
98.969
103.79
108.343
112.371
115.334
116.501
115.57
112.597
107.914
102.474
97.283
93.086
91.248
93.708
99.606
105.558
109.369
107.911
103.266
103.843
109.366
114.82
109.727
74.065
0.086
-109.24
-247.58
-397.133
-541.107
-665.819
-752.024
-784.004
-754.974
-665.164
-526.061
-358.236
-180.42
-10.976
131.018
233.642
291.107
305.869
292.909
268.788
243.86
223.398
204.393
181.344
154.808
126.995
101.202
82.092
70.039
62.91
59.416
57.479
55.492
53.883
52.456
50.236
47.332
44.054
40.474
37.179
34.443
31.568
28.476
25.76
23.522
21.882
20.882
20.125
19.476
19.166
19.088
18.885
18.344
17.211
15.374
12.96
9.991
6.421
2.296
-2.318
-7.347
-12.686
-18.275
-24.1
-30.12
-36.281
-42.535
-48.833
-55.146
-61.461
-67.771
-74.071
-80.366
-86.669
-92.991
-99.339
-105.714
-112.116
-118.541
-124.991
-131.464
-137.959
-144.471
-150.997
-157.53
-164.061
-170.576
-177.059
-183.489
-189.841
-196.094
-202.225
-208.214
-214.038
-219.674
-225.1
-230.292
-235.228
-239.883
-244.231
-248.247
-251.904
-255.178
-258.046
-260.485
-262.476
-263.998
-265.034
-265.568
-265.587
-265.077
-264.031
-262.438
-260.295
-257.598
-254.347
-250.544
-246.194
-241.305
-235.887
-229.954
-223.522
-216.61
-209.24
-201.434
-193.22
-184.627
-175.686
-166.429
-156.892
-147.112
-137.125
-126.973
-116.695
-106.331
-95.924
-85.512
-75.138
-64.84
-54.657
-44.627
-34.786
-25.168
-15.806
-6.731
2.03
10.449
18.504
26.174
33.439
40.286
46.7
52.673
58.198
63.27
67.89
72.058
75.781
79.065
81.921
84.361
86.401
88.057
89.35
90.299
90.927
91.258
91.316
91.126
90.714
90.106
89.326
88.402
87.356
86.214
84.999
83.733
82.437
81.132
79.834
78.563
77.332
76.156
75.047
74.015
73.069
72.215
71.459
70.803
70.25
69.799
69.448
69.195
69.035
68.964
68.973
69.057
69.206
69.412
69.664
69.955
70.273
70.61
70.956
71.302
71.64
71.962
72.261
72.53
72.764
72.958
73.108
73.211
73.263
73.264
73.214
73.113
72.964
72.768
72.53
72.254
71.945
71.608
71.249
70.874
70.487
70.096
69.706
69.323
68.954
68.603
68.277
67.98
67.718
67.494
67.31
67.17
67.073
67.022
67.015
67.051
67.131
67.251
67.41
67.606
67.836
68.095
68.379
68.682
68.998
69.319
69.638
69.948
70.241
70.512
70.755
70.968
71.149
71.298
71.413
71.494
71.543
71.557
71.536
71.476
71.374
71.23
71.045
70.818
70.553
70.25
69.91
69.537
69.133
68.694
68.222
67.72
67.187
66.632
66.068
65.511
64.991
64.53
64.143
63.849
63.659
63.576
63.602
63.724
63.907
64.129
64.354
64.538
64.658
64.672
64.536
64.21
63.637
62.774
61.616
60.158
58.392
56.324
53.959
51.371
48.703
46.114
43.794
41.902
40.611
40.203
40.813
42.426
44.899
47.791
50.619
53.12
54.875
55.358
54.65
53.116
51.543
51.631
54.71
61.526
73.108
90.031
111.506
136.048
160.832
181.325
193.781
195.003
181.37
150.489
101.733
35.858
-43.922
-132.202
-223.776
-312.849
-392.686
-457.531
-502.566
-524.503
-522.449
-497.039
-449.945
-384.814
-306.719
-221.038
-133.689
-49.748
26.619
91.196
141.336
176.509
197.336
205.586
204.073
195.268
181.967
167.85
155.291
145.361
138.543
134.214
131.276
129.005
126.263
121.44
113.787
103.13
89.643
74.218
57.735
40.816
24.26
8.86
-4.943
-16.831
-26.658
-34.506
-40.37
-44.28
-46.393
-46.867
-45.893
-43.706
-40.547
-36.735
-32.627
-28.498
-24.566
-20.978
-17.819
-15.205
-13.242
-12.01
-11.616
-12.123
-13.549
-15.928
-19.25
-23.448
-28.427
-34.025
-40.043
-46.348
-52.849
-59.481
-66.222
-73.039
-79.896
-86.779
-93.666
-100.527
-107.346
-114.091
-120.734
-127.276
-133.729
-140.126
-146.524
-152.953
-159.421
-165.93
-172.458
-178.983
-185.481
-191.913
-198.236
-204.412
-210.409
-216.195
-221.749
-227.04
-232.033
-236.69
-240.969
-244.832
-248.245
-251.177
-253.599
-255.489
-256.827
-257.598
-257.797
-257.416
-256.449
-254.892
-252.741
-249.996
-246.66
-242.738
-238.239
-233.173
-227.556
-221.408
-214.75
-207.609
-200.011
-191.989
-183.573
-174.798
-165.701
-156.318
-146.688
-136.85
-126.844
-116.712
-106.493
-96.23
-85.963
-75.732
-65.577
-55.536
-45.645
-35.939
-26.449
-17.206
-8.239
0.425
8.764
16.756
24.38
31.62
38.462
44.893
50.905
56.493
61.653
66.384
70.69
74.574
78.043
81.108
83.777
86.065
87.986
89.555
90.79
91.709
92.331
92.677
92.767
92.622
92.264
91.712
90.99
90.117
89.114
88
86.796
85.518
84.186
82.815
81.422
80.021
78.626
77.249
75.902
74.595
73.338
72.137
71.002
69.936
68.947
68.036
67.209
66.466
65.809
65.24
64.757
64.36
64.049
63.821
63.676
63.61
63.62
63.705
63.86
64.081
64.365
64.707
65.103
65.549
66.041
66.575
67.147
67.754
68.393
69.06
69.752
70.465
71.197
71.943
72.7
73.464
74.23
74.995
75.755
76.506
77.245
77.968
78.67
79.348
79.996
80.61
81.186
81.719
82.203
82.635
83.011
83.328
83.584
83.777
83.904
83.965
83.959
83.883
83.736
83.518
83.225
82.858
82.416
81.9
81.313
80.66
79.946
79.179
78.366
77.515
76.634
75.73
74.807
73.869
72.921
71.967
71.015
70.071
69.144
68.241
67.371
66.544
65.764
65.037
64.362
63.742
63.174
62.657
62.198
61.809
61.512
61.327
61.265
61.33
61.529
61.857
62.306
62.858
63.475
64.115
64.743
65.324
65.838
66.271
66.595
66.774
66.751
66.482
65.966
65.214
64.237
63.037
61.602
59.967
58.254
56.615
55.203
54.155
53.545
53.467
54.119
55.61
57.937
60.914
64.045
66.836
69.006
70.251
70.164
68.585
65.565
61.61
58.103
56.405
57.361
61.764
70.238
82.731
98.565
116.028
131.699
141.955
143.922
134.586
111.044
71.346
14.526
-57.188
-137.446
-220.018
-300.677
-379.258
-457.754
-532.843
-594.215
-625.434
-612.183
-551.101
-449.944
-323.357
-184.99
-45.323
86.547
199.038
278.95
318.994
320.97
296.505
260.32
222.539
187.039
152.264
117.125
83.103
53.259
32.032
21.441
20.381
26.349
35.426
44.414
51.881
56.947
58.975
57.569
52.742
45.349
37.076
29.394
22.996
18.097
14.676
12.78
12.428
13.294
14.701
16.003
16.844
17.105
16.827
16.013
14.59
12.537
9.913
6.797
3.255
-0.686
-5.04
-9.813
-14.962
-20.421
-26.114
-31.959
-37.911
-43.94
-50.026
-56.158
-62.325
-68.52
-74.741
-80.995
-87.283
-93.603
-99.948
-106.304
-112.666
-119.032
-125.409
-131.801
-138.206
-144.614
-151.011
-157.384
-163.716
-169.989
-176.179
-182.261
-188.208
-193.998
-199.609
-205.021
-210.211
-215.156
-219.831
-224.214
-228.282
-232.011
-235.379
-238.362
-240.939
-243.09
-244.796
-246.042
-246.811
-247.092
-246.872
-246.143
-244.897
-243.13
-240.839
-238.023
-234.684
-230.825
-226.454
-221.579
-216.213
-210.368
-204.062
-197.315
-190.147
-182.584
-174.651
-166.376
-157.788
-148.919
-139.801
-130.467
-120.952
-111.291
-101.519
-91.673
-81.789
-71.902
-62.049
-52.263
-42.58
-33.031
-23.648
-14.462
-5.501
3.209
11.641
19.775
27.587
35.059
42.174
48.918
55.279
61.247
66.814
71.978
76.735
81.086
85.034
88.584
91.743
94.52
96.925
98.971
100.672
102.042
103.097
103.854
104.331
104.545
104.517
104.265
103.808
103.167
102.361
101.409
100.33
99.142
97.865
96.515
95.109
93.663
92.194
90.715
89.24
87.781
86.349
84.956
83.61
82.319
81.09
79.928
78.838
77.823
76.888
76.034
75.262
74.574
73.97
73.45
73.014
72.661
72.39
72.197
72.082
72.042
72.075
72.178
72.347
72.58
72.873
73.224
73.63
74.087
74.591
75.14
75.729
76.357
77.018
77.709
78.427
79.166
79.925
80.699
81.487
82.282
83.083
83.884
84.682
85.473
86.252
87.013
87.751
88.46
89.137
89.774
90.367
90.91
91.396
91.821
92.181
92.47
92.684
92.817
92.865
92.823
92.69
92.462
92.138
91.715
91.194
90.576
89.867
89.067
88.182
87.214
86.17
85.055
83.877
82.637
81.342
79.996
78.606
77.183
75.736
74.274
72.81
71.356
69.929
68.542
67.205
65.92
64.694
63.534
62.454
61.474
60.605
59.853
59.226
58.736
58.387
58.178
58.084
58.061
58.074
58.094
58.109
58.116
58.095
58.02
57.862
57.601
57.24
56.785
56.219
55.522
54.699
53.802
52.947
52.265
51.854
51.772
52.052
52.737
53.889
55.573
57.856
60.772
64.329
68.578
73.615
79.458
86.009
92.883
99.359
104.747
108.45
109.912
108.845
105.148
98.82
90.856
83.152
77.265
74.885
76.194
78.77
82.145
86.802
93.639
105.845
118.894
121.671
103.67
54.593
-22.997
-115.575
-212.006
-304.055
-391.892
-478.849
-558.228
-613.878
-628.89
-593.843
-512.675
-404.739
-287.661
-171.515
-65.743
29.776
111.956
171.919
211.44
231.407
234.282
228.155
213.911
192.525
167.822
141.816
118.118
99.375
85.954
77.708
73.367
71.504
70.839
69.7
67.511
64.528
60.448
55.405
49.904
44.138
38.578
33.921
30.073
26.643
23.896
21.854
20.39
19.605
19.263
19.048
19.006
19.159
19.219
19.016
18.414
17.226
15.492
13.253
10.45
7.091
3.234
-1.072
-5.756
-10.752
-16.047
-21.614
-27.401
-33.353
-39.415
-45.549
-51.738
-57.968
-64.232
-70.52
-76.833
-83.185
-89.587
-96.044
-102.556
-109.118
-115.721
-122.363
-129.042
-135.75
-142.479
-149.216
-155.946
-162.652
-169.312
-175.905
-182.402
-188.772
-194.988
-201.024
-206.852
-212.448
-217.786
-222.839
-227.583
-231.995
-236.049
-239.723
-242.991
-245.831
-248.222
-250.146
-251.583
-252.52
-252.941
-252.836
-252.195
-251.011
-249.28
-247.001
-244.173
-240.8
-236.887
-232.445
-227.484
-222.02
-216.067
-209.647
-202.781
-195.492
-187.807
-179.754
-171.36
-162.658
-153.678
-144.453
-135.019
-125.408
-115.657
-105.801
-95.877
-85.92
-75.967
-66.053
-56.213
-46.481
-36.889
-27.47
-18.253
-9.266
-0.536
7.912
16.057
23.877
31.354
38.474
45.223
51.59
57.566
63.146
68.325
73.102
77.477
81.453
85.034
88.227
91.04
93.483
95.567
97.305
98.712
99.803
100.597
101.109
101.361
101.371
101.16
100.749
100.158
99.408
98.521
97.517
96.415
95.235
93.997
92.717
91.414
90.104
88.801
87.519
86.273
85.072
83.929
82.852
81.85
80.93
80.098
79.36
78.72
78.18
77.744
77.411
77.182
77.055
77.028
77.098
77.26
77.51
77.843
78.251
78.729
79.269
79.865
80.509
81.193
81.91
82.653
83.414
84.186
84.962
85.735
86.5
87.251
87.983
88.691
89.371
90.019
90.631
91.203
91.732
92.214
92.647
93.026
93.351
93.62
93.829
93.979
94.07
94.1
94.07
93.98
93.83
93.621
93.353
93.027
92.644
92.203
91.707
91.157
90.555
89.903
89.204
88.459
87.669
86.837
85.963
85.051
84.103
83.118
82.098
81.048
79.973
78.88
77.778
76.672
75.572
74.486
73.423
72.391
71.394
70.434
69.512
68.634
67.805
67.031
66.32
65.676
65.107
64.619
64.217
63.901
63.666
63.503
63.408
63.377
63.415
63.539
63.762
64.094
64.544
65.112
65.789
66.566
67.414
68.292
69.17
70.012
70.789
71.487
72.078
72.547
72.873
73.004
72.894
72.501
71.803
70.821
69.603
68.182
66.604
64.93
63.235
61.641
60.247
59.121
58.355
57.974
58.109
59.025
60.784
63.337
66.486
69.687
72.405
74.311
74.761
73.049
69.173
63.254
55.895
48.86
43.783
42.026
45.456
54.031
65.001
76.3
86.342
95.898
108.412
122.724
130.318
117.187
71.494
-9.879
-118.635
-238.626
-359.635
-476.46
-584.338
-677.055
-738.678
-752.763
-712.89
-623.765
-499.963
-355.537
-201.731
-47.532
95.871
209.87
281.898
309.131
300.433
276.924
253.409
235.969
223.963
210.245
193.003
174.564
157.327
144.748
137.149
132.418
128.99
124.862
118.227
108.645
96.221
81.451
65.346
48.808
32.46
17.051
3.388
-8.05
-16.984
-23.372
-27.488
-29.578
-29.847
-28.587
-26.117
-22.787
-19.029
-15.207
-11.55
-8.246
-5.409
-3.143
-1.592
-0.891
-1.148
-2.426
-4.735
-8.072
-12.428
-17.753
-23.954
-30.868
-38.262
-45.944
-53.783
-61.691
-69.625
-77.538
-85.372
-93.084
-100.65
-108.056
-115.296
-122.35
-129.193
-135.819
-142.247
-148.522
-154.716
-160.878
-167.031
-173.185
-179.335
-185.475
-191.594
-197.667
-203.657
-209.53
-215.257
-220.816
-226.19
-231.356
-236.282
-240.936
-245.278
-249.275
-252.898
-256.117
-258.903
-261.232
-263.083
-264.441
-265.296
-265.636
-265.449
-264.724
-263.45
-261.619
-259.225
-256.265
-252.733
-248.632
-243.965
-238.74
-232.968
-226.662
-219.84
-212.521
-204.727
-196.485
-187.823
-178.77
-169.359
-159.625
-149.603
-139.332
-128.851
-118.2
-107.418
-96.549
-85.632
-74.711
-63.825
-53.015
-42.319
-31.774
-21.419
-11.287
-1.412
8.173
17.439
26.357
34.902
43.048
50.776
58.066
64.903
71.275
77.171
82.586
87.516
91.961
95.924
99.409
102.425
104.982
107.093
108.775
110.043
110.918
111.419
111.571
111.396
110.918
110.164
109.158
107.927
106.497
104.893
103.142
101.268
99.295
97.25
95.153
93.029
90.898
88.781
86.698
84.666
82.702
80.821
79.036
77.358
75.798
74.364
73.062
71.897
70.872
69.99
69.25
68.652
68.193
67.869
67.674
67.603
67.648
67.801
68.054
68.398
68.823
69.32
69.88
70.493
71.148
71.837
72.549
73.275
74.006
74.734
75.449
76.144
76.812
77.448
78.044
78.597
79.102
79.554
79.951
80.288
80.565
80.779
80.928
81.013
81.035
80.994
80.893
80.734
80.519
80.252
79.937
79.577
79.176
78.736
78.262
77.759
77.23
76.682
76.118
75.545
74.967
74.389
73.815
73.248
72.692
72.149
71.62
71.109
70.617
70.149
69.708
69.301
68.931
68.605
68.327
68.101
67.931
67.816
67.754
67.743
67.779
67.86
67.984
68.151
68.359
68.61
68.902
69.233
69.598
69.992
70.407
70.832
71.257
71.677
72.096
72.529
72.989
73.484
74.014
74.577
75.165
75.767
76.358
76.9
77.347
77.659
77.802
77.757
77.517
77.069
76.384
75.417
74.128
72.508
70.581
68.376
65.925
63.255
60.408
57.496
54.682
52.125
49.97
48.312
47.159
46.592
46.795
47.85
49.731
52.195
54.748
57.05
58.993
60.28
60.483
59.422
57.025
53.901
51.319
49.943
50.268
53.255
59.487
68.902
79.885
88.253
89.715
82.521
69.51
55.412
42.165
27.678
0.919
-50.185
-130.076
-238.214
-360.935
-477.347
-570.606
-623.744
-626.922
-580.512
-487.488
-358.201
-210.103
-61.098
67.814
160.568
213.175
230.592
228.378
221.756
216.929
213.683
205.096
186.411
160.043
131.251
106.045
87.62
75.558
68.358
64.662
63.447
63.407
62.997
61.159
57.538
52.424
46.438
40.044
33.592
27.603
22.651
19.059
16.868
15.879
15.753
16.195
16.979
17.866
18.6
19.011
18.985
18.465
17.458
15.957
13.946
11.431
8.422
4.937
1.016
-3.302
-7.981
-12.965
-18.196
-23.617
-29.162
-34.787
-40.467
-46.182
-51.923
-57.69
-63.48
-69.298
-75.155
-81.056
-87.006
-93.007
-99.057
-105.156
-111.305
-117.507
-123.761
-130.065
-136.409
-142.779
-149.162
-155.538
-161.887
-168.186
-174.408
-180.525
-186.514
-192.35
-198.009
-203.466
-208.693
-213.666
-218.359
-222.745
-226.798
-230.492
-233.799
-236.696
-239.159
-241.168
-242.702
-243.745
-244.282
-244.299
-243.786
-242.736
-241.143
-239.005
-236.321
-233.093
-229.328
-225.033
-220.22
-214.903
-209.098
-202.825
-196.106
-188.965
-181.43
-173.527
-165.288
-156.745
-147.932
-138.883
-129.634
-120.222
-110.687
-101.066
-91.397
-81.721
-72.073
-62.492
-53.014
-43.673
-34.502
-25.533
-16.794
-8.312
-0.114
7.78
15.347
22.572
29.44
35.937
42.055
47.787
53.129
58.079
62.639
66.811
70.602
74.018
77.071
79.771
82.132
84.168
85.897
87.336
88.504
89.421
90.107
90.583
90.87
90.988
90.958
90.8
90.533
90.177
89.747
89.262
88.736
88.185
87.621
87.057
86.501
85.964
85.452
84.971
84.526
84.12
83.755
83.432
83.15
82.909
82.707
82.54
82.406
82.3
82.216
82.151
82.097
82.049
82.001
81.947
81.881
81.798
81.694
81.564
81.405
81.213
80.985
80.719
80.414
80.068
79.68
79.252
78.784
78.28
77.741
77.172
76.575
75.956
75.319
74.671
74.014
73.355
72.697
72.047
71.41
70.792
70.196
69.626
69.088
68.586
68.123
67.703
67.325
66.992
66.704
66.461
66.264
66.112
66.003
65.937
65.915
65.936
66
66.106
66.252
66.436
66.656
66.908
67.187
67.485
67.796
68.115
68.44
68.769
69.096
69.42
69.741
70.061
70.384
70.71
71.03
71.341
71.641
71.939
72.251
72.585
72.941
73.319
73.723
74.149
74.595
75.032
75.408
75.675
75.79
75.727
75.479
75.027
74.341
73.388
72.137
70.583
68.754
66.666
64.323
61.76
59.04
56.294
53.723
51.501
49.77
48.646
48.209
48.563
49.83
52.115
55.492
59.983
65.543
72.154
79.858
88.53
97.881
107.41
116.387
124.118
130.063
133.764
134.779
132.974
128.559
122.044
114.415
106.779
100.041
94.689
90.803
87.765
84.307
78.996
69.636
53.522
28.019
-9.213
-57.974
-115.133
-177.284
-240.474
-304.782
-375.276
-451.172
-528.521
-595.566
-628.602
-614.211
-545.947
-425.448
-275.448
-116.476
31.099
143.609
216.227
250.468
254.347
248.093
241.614
237.792
236.258
228.827
213.458
193.782
172.819
154.961
141.85
131.995
124.149
117.092
109.374
99.922
88.339
74.724
59.632
43.937
28.311
13.217
-0.675
-12.622
-22.145
-29.011
-33.293
-35.315
-35.356
-33.631
-30.428
-26.082
-20.996
-15.639
-10.348
-5.322
-0.707
3.384
6.81
9.378
10.923
11.365
10.672
8.847
5.911
1.87
-3.21
-9.201
-15.906
-23.088
-30.575
-38.266
-46.092
-54.003
-61.938
-69.82
-77.592
-85.24
-92.753
-100.112
-107.298
-114.277
-121.047
-127.64
-134.111
-140.521
-146.906
-153.274
-159.624
-165.948
-172.235
-178.47
-184.623
-190.651
-196.518
-202.199
-207.671
-212.914
-217.904
-222.607
-226.987
-231.009
-234.642
-237.86
-240.637
-242.949
-244.778
-246.109
-246.935
-247.251
-247.053
-246.335
-245.092
-243.321
-241.022
-238.194
-234.841
-230.966
-226.578
-221.686
-216.305
-210.451
-204.143
-197.402
-190.251
-182.715
-174.821
-166.597
-158.073
-149.281
-140.252
-131.022
-121.623
-112.092
-102.464
-92.775
-83.059
-73.353
-63.691
-54.104
-44.625
-35.284
-26.109
-17.13
-8.37
0.144
8.39
16.346
23.994
31.315
38.294
44.918
51.176
57.06
62.563
67.683
72.416
76.764
80.728
84.313
87.524
90.37
92.86
95.005
96.819
98.315
99.509
100.417
101.056
101.442
101.596
101.533
101.273
100.833
100.231
99.484
98.609
97.624
96.544
95.385
94.163
92.891
91.584
90.254
88.913
87.572
86.241
84.93
83.647
82.4
81.196
80.04
78.938
77.894
76.911
75.992
75.14
74.354
73.634
72.981
72.394
71.871
71.41
71.009
70.667
70.38
70.147
69.965
69.831
69.743
69.697
69.691
69.722
69.788
69.886
70.014
70.169
70.349
70.553
70.779
71.024
71.286
71.562
71.851
72.149
72.454
72.764
73.076
73.387
73.696
74.001
74.299
74.588
74.866
75.13
75.377
75.605
75.811
75.992
76.145
76.266
76.354
76.405
76.419
76.393
76.325
76.213
76.056
75.851
75.598
75.296
74.944
74.54
74.086
73.586
73.044
72.466
71.856
71.22
70.565
69.898
69.226
68.55
67.872
67.194
66.521
65.86
65.218
64.603
64.021
63.482
62.994
62.561
62.19
61.879
61.619
61.413
61.26
61.169
61.16
61.247
61.438
61.742
62.157
62.676
63.29
63.974
64.69
65.416
66.124
66.797
67.436
68.019
68.537
68.974
69.285
69.432
69.39
69.139
68.697
68.107
67.393
66.6
65.779
64.972
64.273
63.761
63.496
63.569
63.995
64.856
66.37
68.605
71.472
74.703
77.685
79.83
80.831
80.225
77.479
72.577
65.813
58.182
51.604
47.696
47.596
52.4
62.657
77.784
96.339
115.507
131.128
139.168
135.765
117.374
81.523
28.873
-37.013
-111.926
-191.388
-274.614
-362.799
-452.038
-532.598
-588.288
-602.657
-569.302
-494.243
-394.745
-289.475
-189.893
-99.908
-16.566
61.96
132.337
189.698
229.528
250.701
255.5
246.995
227.814
200.423
168.494
136.367
107.409
83.301
64.358
50.326
41.436
38.09
39.286
42.816
46.521
49.176
50.518
50.716
49.565
46.415
41.222
34.85
28.514
23.055
18.696
15.284
12.712
11.166
10.756
11.2
11.915
12.382
12.344
11.761
10.706
9.156
7.024
4.29
1.023
-2.671
-6.706
-11.048
-15.714
-20.701
-25.974
-31.473
-37.12
-42.859
-48.668
-54.533
-60.448
-66.41
-72.409
-78.442
-84.522
-90.657
-96.852
-103.107
-109.41
-115.749
-122.122
-128.53
-134.973
-141.449
-147.944
-154.442
-160.925
-167.373
-173.765
-180.075
-186.273
-192.332
-198.225
-203.927
-209.415
-214.664
-219.648
-224.34
-228.717
-232.753
-236.423
-239.703
-242.57
-245
-246.974
-248.474
-249.483
-249.986
-249.97
-249.426
-248.345
-246.722
-244.554
-241.843
-238.589
-234.798
-230.48
-225.645
-220.306
-214.481
-208.187
-201.446
-194.282
-186.721
-178.789
-170.517
-161.936
-153.077
-143.975
-134.664
-125.178
-115.555
-105.829
-96.038
-86.217
-76.404
-66.635
-56.943
-47.363
-37.929
-28.672
-19.621
-10.804
-2.246
6.028
13.997
21.642
28.946
35.895
42.478
48.684
54.507
59.942
64.986
69.639
73.904
77.785
81.289
84.422
87.196
89.621
91.709
93.476
94.934
96.102
96.995
97.631
98.029
98.207
98.185
97.981
97.616
97.107
96.473
95.732
94.9
93.995
93.031
92.022
90.982
89.924
88.859
87.796
86.746
85.716
84.713
83.744
82.814
81.925
81.083
80.288
79.544
78.85
78.206
77.614
77.071
76.576
76.127
75.721
75.356
75.027
74.731
74.465
74.224
74.004
73.803
73.616
73.44
73.273
73.113
72.958
72.806
72.656
72.508
72.362
72.219
72.078
71.94
71.808
71.683
71.565
71.457
71.361
71.278
71.21
71.158
71.126
71.114
71.125
71.16
71.222
71.312
71.431
71.581
71.762
71.975
72.221
72.5
72.811
73.152
73.523
73.921
74.344
74.788
75.247
75.718
76.195
76.672
77.142
77.6
78.038
78.449
78.827
79.167
79.461
79.705
79.892
80.017
80.075
80.063
79.976
79.81
79.563
79.233
78.822
78.332
77.766
77.124
76.412
75.633
74.794
73.898
72.947
71.942
70.888
69.792
68.664
67.515
66.353
65.188
64.034
62.904
61.811
60.762
59.759
58.805
57.91
57.09
56.368
55.76
55.276
54.924
54.712
54.638
54.694
54.856
55.081
55.331
55.579
55.804
55.994
56.131
56.179
56.103
55.869
55.452
54.844
54.023
52.985
51.768
50.436
49.088
47.85
46.804
46.032
45.64
45.718
46.372
47.724
49.833
52.784
56.726
61.657
67.488
73.992
80.638
86.909
92.44
96.674
99.007
99.282
97.511
94.163
90.478
87.36
85.291
85.077
87.362
91.93
98.164
104.432
107.625
105.252
95.427
75.642
43.619
-1.899
-61.474
-132.653
-209.434
-286.803
-361.205
-431.972
-500.378
-563.352
-612.063
-632.912
-614.378
-553.402
-456.349
-335.829
-203.245
-67.988
60.99
172.234
252.484
294.373
300.09
281.829
254.54
228.021
205.034
182.537
158.582
134.135
111.578
94.411
83.572
77.572
74.828
73.063
70.257
65.809
59.511
51.473
42.408
32.956
23.609
15.09
8.088
2.876
-0.494
-2.196
-2.625
-2.089
-0.851
0.789
2.542
4.134
5.358
6.106
6.336
6.024
5.148
3.68
1.602
-1.055
-4.245
-7.914
-12.005
-16.478
-21.282
-26.355
-31.63
-37.028
-42.494
-48.003
-53.537
-59.091
-64.667
-70.261
-75.879
-81.544
-87.274
-93.082
-98.975
-104.953
-111.015
-117.168
-123.416
-129.762
-136.2
-142.718
-149.302
-155.935
-162.598
-169.268
-175.917
-182.513
-189.025
-195.424
-201.683
-207.772
-213.661
-219.319
-224.716
-229.821
-234.605
-239.037
-243.086
-246.722
-249.916
-252.644
-254.881
-256.605
-257.797
-258.439
-258.518
-258.024
-256.949
-255.287
-253.037
-250.2
-246.779
-242.783
-238.222
-233.108
-227.459
-221.293
-214.633
-207.505
-199.935
-191.954
-183.593
-174.886
-165.869
-156.578
-147.051
-137.327
-127.446
-117.449
-107.374
-97.264
-87.159
-77.097
-67.116
-57.254
-47.546
-38.024
-28.72
-19.661
-10.874
-2.382
5.792
13.631
21.119
28.241
34.987
41.348
47.319
52.897
58.081
62.872
67.275
71.296
74.942
78.224
81.151
83.738
85.998
87.946
89.598
90.972
92.085
92.955
93.602
94.044
94.299
94.386
94.322
94.124
93.808
93.389
92.881
92.298
91.652
90.955
90.216
89.446
88.652
87.843
87.023
86.199
85.375
84.555
83.742
82.938
82.146
81.368
80.604
79.856
79.123
78.407
77.707
77.022
76.351
75.693
75.048
74.414
73.79
73.176
72.571
71.975
71.389
70.812
70.246
69.691
69.148
68.621
68.109
67.615
67.143
66.694
66.272
65.879
65.519
65.193
64.905
64.657
64.45
64.287
64.169
64.097
64.073
64.097
64.171
64.296
64.471
64.698
64.977
65.307
65.689
66.122
66.604
67.135
67.713
68.336
69.003
69.71
70.456
71.237
72.049
72.89
73.753
74.633
75.526
76.427
77.33
78.231
79.124
80.004
80.866
81.705
82.518
83.298
84.039
84.737
85.386
85.982
86.518
86.99
87.393
87.721
87.972
88.142
88.227
88.224
88.129
87.941
87.657
87.279
86.804
86.233
85.568
84.811
83.97
83.05
82.057
80.999
79.882
78.716
77.509
76.27
75.002
73.711
72.404
71.089
69.777
68.478
67.202
65.96
64.765
63.629
62.566
61.579
60.669
59.838
59.09
58.436
57.893
57.471
57.177
57.017
56.999
57.121
57.372
57.722
58.125
58.544
58.948
59.32
59.651
59.919
60.102
60.178
60.121
59.921
59.567
59.033
58.299
57.39
56.37
55.343
54.44
53.749
53.32
53.22
53.53
54.322
55.655
57.575
60.067
63.184
67.096
71.833
77.262
83.08
88.714
93.554
97.144
98.863
98.013
94.423
88.318
80.395
71.992
64.596
59.695
58.72
62.848
70.886
79.413
86.577
90.529
90.99
90.953
85.397
65.178
24.969
-43.387
-136.546
-241.361
-353.904
-466.589
-572.667
-670.2
-740.502
-761.741
-721.399
-610.441
-441.466
-245.369
-51.656
107.518
211.547
261.932
268.393
251.161
231.72
217.483
208.866
200.389
184.436
161.456
136.038
112.684
95.498
84.911
78.973
76.131
74.787
73.393
70.791
66.343
59.99
52.151
43.533
34.704
26.103
18.31
11.883
7.078
3.907
2.158
1.476
1.582
2.247
3.218
4.24
5.075
5.538
5.539
5.046
4.038
2.498
0.404
-2.256
-5.454
-9.146
-13.284
-17.82
-22.716
-27.926
-33.39
-39.042
-44.806
-50.627
-56.476
-62.334
-68.193
-74.051
-79.901
-85.749
-91.614
-97.513
-103.455
-109.447
-115.486
-121.572
-127.713
-133.913
-140.176
-146.498
-152.87
-159.279
-165.713
-172.156
-178.586
-184.981
-191.31
-197.548
-203.67
-209.65
-215.464
-221.084
-226.483
-231.634
-236.51
-241.085
-245.329
-249.217
-252.719
-255.81
-258.466
-260.666
-262.389
-263.615
-264.327
-264.513
-264.158
-263.254
-261.793
-259.769
-257.179
-254.024
-250.307
-246.034
-241.213
-235.855
-229.975
-223.59
-216.72
-209.387
-201.616
-193.433
-184.868
-175.952
-166.717
-157.2
-147.435
-137.459
-127.312
-117.032
-106.659
-96.231
-85.788
-75.368
-65.009
-54.748
-44.619
-34.658
-24.897
-15.366
-6.094
2.891
11.563
19.901
27.883
35.492
42.712
49.53
55.934
61.917
67.474
72.6
77.294
81.56
85.4
88.821
91.831
94.441
96.663
98.512
100.002
101.152
101.979
102.501
102.74
102.714
102.445
101.953
101.259
100.384
99.348
98.172
96.876
95.478
93.997
92.452
90.858
89.232
87.589
85.943
84.308
82.694
81.115
79.578
78.094
76.67
75.313
74.027
72.817
71.685
70.635
69.665
68.778
67.971
67.243
66.593
66.017
65.513
65.076
64.703
64.39
64.133
63.927
63.768
63.652
63.574
63.531
63.519
63.535
63.575
63.637
63.717
63.813
63.922
64.042
64.17
64.306
64.447
64.592
64.741
64.893
65.049
65.208
65.37
65.535
65.704
65.877
66.055
66.237
66.425
66.619
66.819
67.027
67.243
67.468
67.7
67.94
68.187
68.439
68.695
68.952
69.208
69.46
69.706
69.944
70.17
70.383
70.579
70.755
70.906
71.03
71.123
71.181
71.2
71.176
71.108
70.992
70.829
70.615
70.351
70.036
69.67
69.254
68.787
68.269
67.702
67.086
66.424
65.72
64.979
64.21
63.42
62.618
61.816
61.023
60.249
59.502
58.789
58.115
57.484
56.903
56.378
55.915
55.523
55.209
54.979
54.837
54.787
54.828
54.96
55.178
55.476
55.851
56.303
56.843
57.492
58.265
59.164
60.191
61.34
62.606
63.977
65.43
66.918
68.395
69.821
71.161
72.4
73.52
74.484
75.245
75.726
75.886
75.73
75.262
74.484
73.391
71.958
70.229
68.349
66.467
64.727
63.26
62.107
61.377
61.302
61.99
63.423
65.388
67.337
68.768
69.428
68.977
66.944
63.203
57.922
51.742
46.226
42.884
42.665
46.608
55.6
69.464
87.082
106.467
124.038
135.757
138.161
127.378
99.491
53.625
-7.732
-81.592
-163.086
-249.281
-343.031
-443.092
-541.969
-628.636
-684.002
-690.667
-644.78
-548.349
-410.411
-250.712
-84.706
69.559
188.653
263.633
292.545
283.679
259.979
235.468
216.269
202.842
186.639
165.012
141.117
118.071
100.52
89.837
84.016
81.384
80.145
78.593
75.67
70.812
63.963
55.564
46.366
36.997
27.934
19.749
12.965
7.818
4.319
2.265
1.312
1.187
1.664
2.498
3.442
4.264
4.78
4.9
4.585
3.809
2.552
0.788
-1.498
-4.28
-7.515
-11.161
-15.174
-19.521
-24.162
-29.043
-34.103
-39.272
-44.499
-49.76
-55.039
-60.332
-65.639
-70.958
-76.297
-81.678
-87.121
-92.637
-98.234
-103.912
-109.673
-115.522
-121.466
-127.506
-133.639
-139.853
-146.136
-152.473
-158.844
-165.229
-171.598
-177.921
-184.168
-190.31
-196.317
-202.162
-207.812
-213.236
-218.403
-223.283
-227.847
-232.064
-235.903
-239.335
-242.333
-244.872
-246.929
-248.482
-249.512
-250.003
-249.94
-249.314
-248.117
-246.343
-243.989
-241.056
-237.548
-233.472
-228.837
-223.655
-217.942
-211.717
-205.002
-197.821
-190.202
-182.174
-173.77
-165.024
-155.972
-146.651
-137.101
-127.361
-117.47
-107.469
-97.398
-87.298
-77.208
-67.168
-57.216
-47.387
-37.718
-28.24
-18.986
-9.983
-1.258
7.164
15.261
23.014
30.405
37.418
44.041
50.265
56.081
61.486
66.476
71.054
75.222
78.986
82.356
85.341
87.955
90.21
92.123
93.71
94.99
95.981
96.703
97.176
97.42
97.456
97.305
96.986
96.518
95.92
95.211
94.408
93.526
92.582
91.59
90.566
89.521
88.47
87.424
86.394
85.388
84.416
83.485
82.6
81.765
80.985
80.26
79.592
78.981
78.426
77.927
77.482
77.087
76.74
76.439
76.178
75.956
75.768
75.61
75.481
75.376
75.295
75.234
75.193
75.169
75.162
75.171
75.194
75.23
75.277
75.333
75.398
75.469
75.547
75.63
75.719
75.813
75.914
76.022
76.138
76.262
76.395
76.537
76.688
76.848
77.017
77.195
77.379
77.569
77.766
77.966
78.168
78.369
78.565
78.752
78.926
79.083
79.218
79.325
79.401
79.442
79.446
79.41
79.333
79.211
79.044
78.829
78.566
78.252
77.886
77.465
76.99
76.46
75.877
75.245
74.568
73.853
73.107
72.338
71.553
70.76
69.964
69.169
68.379
67.599
66.832
66.086
65.367
64.684
64.047
63.463
62.937
62.474
62.075
61.743
61.48
61.28
61.145
61.079
61.096
61.222
61.476
61.86
62.373
63.013
63.766
64.627
65.575
66.556
67.528
68.442
69.254
69.961
70.549
70.983
71.218
71.189
70.856
70.25
69.397
68.297
66.958
65.353
63.526
61.647
59.871
58.366
57.293
56.68
56.642
57.393
58.99
61.378
64.284
67.091
69.316
70.724
70.962
69.82
67.398
63.931
60.353
58.091
58.184
61.488
68.654
79.53
93.26
108.23
121.536
130.037
130.96
121.097
98.018
60.711
8.989
-54.023
-123.629
-197.322
-270.688
-341.131
-406.911
-459.113
-491.585
-498.505
-473.598
-422.414
-351.632
-268.355
-182.656
-96.772
-12.254
67.207
139.108
198.016
239.869
264.584
273.372
268.715
253.263
229.304
199.986
169.405
141.109
116.972
97.44
82.383
71.629
65.11
62.438
61.942
61.568
60.325
58.009
54.744
50.781
45.955
39.863
33.044
26.589
21.07
16.733
13.508
11.047
9.314
8.55
8.577
8.884
9.09
8.875
8.128
6.969
5.399
3.312
0.682
-2.447
-6.001
-9.87
-13.997
-18.393
-23.042
-27.917
-32.968
-38.118
-43.32
-48.555
-53.814
-59.1
-64.415
-69.757
-75.13
-80.551
-86.037
-91.599
-97.243
-102.967
-108.767
-114.645
-120.604
-126.649
-132.777
-138.978
-145.24
-151.544
-157.873
-164.204
-170.513
-176.769
-182.944
-189.012
-194.945
-200.717
-206.3
-211.664
-216.779
-221.618
-226.15
-230.345
-234.173
-237.607
-240.619
-243.184
-245.281
-246.886
-247.982
-248.55
-248.579
-248.054
-246.969
-245.315
-243.09
-240.293
-236.927
-232.998
-228.514
-223.487
-217.932
-211.867
-205.31
-198.287
-190.822
-182.942
-174.679
-166.064
-157.132
-147.918
-138.461
-128.798
-118.97
-109.015
-98.976
-88.891
-78.801
-68.745
-58.762
-48.889
-39.162
-29.615
-20.28
-11.188
-2.368
6.156
14.358
22.218
29.717
36.839
43.57
49.899
55.817
61.319
66.401
71.062
75.304
79.13
82.548
85.565
88.193
90.445
92.334
93.878
95.094
96
96.617
96.964
97.062
96.933
96.598
96.076
95.391
94.561
93.606
92.545
91.397
90.18
88.908
87.599
86.266
84.924
83.584
82.259
80.958
79.69
78.465
77.288
76.166
75.104
74.104
73.171
72.305
71.506
70.776
70.111
69.512
68.974
68.495
68.072
67.7
67.376
67.096
66.857
66.654
66.485
66.346
66.235
66.148
66.084
66.039
66.012
65.999
66
66.013
66.036
66.068
66.108
66.155
66.209
66.269
66.336
66.408
66.485
66.566
66.651
66.74
66.83
66.923
67.017
67.112
67.209
67.306
67.402
67.495
67.584
67.665
67.737
67.795
67.835
67.854
67.848
67.815
67.753
67.658
67.529
67.363
67.16
66.916
66.632
66.304
65.931
65.513
65.048
64.538
63.986
63.395
62.77
62.117
61.443
60.756
60.062
59.365
58.672
57.986
57.308
56.642
55.993
55.364
54.767
54.213
53.711
53.271
52.9
52.601
52.378
52.232
52.158
52.15
52.204
52.325
52.533
52.847
53.278
53.831
54.499
55.265
56.119
57.04
57.985
58.915
59.785
60.556
61.228
61.805
62.285
62.649
62.843
62.816
62.554
62.071
61.389
60.527
59.498
58.324
57.08
55.889
54.863
54.076
53.579
53.392
53.526
54.125
55.361
57.213
59.575
62.171
64.478
66.101
66.712
65.731
62.749
57.89
51.344
43.775
36.797
31.908
30.358
33.723
41.216
49.498
57.641
64.882
71.539
81.399
89.509
84.985
58.903
2.104
-81.433
-176.491
-271.043
-356.291
-431.225
-498.741
-555.088
-588.941
-585.719
-536.421
-441.312
-311.27
-165.173
-22.215
99.408
186.932
236.886
254.083
250.863
238.983
224.959
210.141
190.856
165.883
138.232
111.737
90.742
77.189
69.973
67.393
67.688
68.842
69.157
67.708
64.042
58.325
51.225
43.328
35.136
27.313
20.526
15.113
11.187
8.589
6.975
6.09
5.714
5.625
5.602
5.436
4.981
4.151
2.914
1.259
-0.836
-3.393
-6.424
-9.914
-13.834
-18.132
-22.758
-27.679
-32.844
-38.209
-43.718
-49.302
-54.913
-60.524
-66.113
-71.675
-77.206
-82.697
-88.15
-93.582
-99.002
-104.424
-109.855
-115.295
-120.744
-126.212
-131.702
-137.222
-142.773
-148.347
-153.935
-159.528
-165.113
-170.673
-176.19
-181.639
-186.997
-192.244
-197.358
-202.32
-207.106
-211.694
-216.058
-220.178
-224.029
-227.587
-230.826
-233.722
-236.251
-238.391
-240.122
-241.424
-242.278
-242.669
-242.583
-242.007
-240.931
-239.349
-237.253
-234.641
-231.512
-227.869
-223.716
-219.061
-213.915
-208.291
-202.204
-195.673
-188.718
-181.363
-173.631
-165.55
-157.149
-148.458
-139.509
-130.335
-120.972
-111.453
-101.817
-92.099
-82.336
-72.567
-62.826
-53.151
-43.576
-34.136
-24.862
-15.788
-6.941
1.651
9.96
17.965
25.643
32.975
39.946
46.541
52.749
58.561
63.97
68.973
73.568
77.757
81.542
84.929
87.925
90.54
92.785
94.672
96.215
97.432
98.338
98.953
99.294
99.382
99.237
98.88
98.333
97.616
96.75
95.756
94.655
93.465
92.207
90.897
89.553
88.191
86.826
85.471
84.139
82.84
81.585
80.382
79.238
78.159
77.151
76.217
75.36
74.581
73.882
73.262
72.721
72.258
71.87
71.555
71.309
71.128
71.009
70.946
70.935
70.971
71.048
71.161
71.305
71.476
71.668
71.877
72.1
72.333
72.572
72.816
73.062
73.308
73.552
73.795
74.035
74.273
74.509
74.745
74.979
75.214
75.45
75.688
75.93
76.174
76.422
76.673
76.927
77.185
77.446
77.71
77.976
78.244
78.512
78.781
79.048
79.31
79.566
79.813
80.047
80.266
80.464
80.639
80.787
80.902
80.983
81.024
81.022
80.971
80.868
80.709
80.491
80.209
79.862
79.446
78.963
78.413
77.802
77.134
76.413
75.645
74.837
73.995
73.126
72.233
71.317
70.381
69.432
68.478
67.527
66.587
65.663
64.763
63.896
63.07
62.292
61.562
60.877
60.241
59.664
59.162
58.759
58.474
58.316
58.291
58.405
58.659
59.048
59.551
60.128
60.747
61.379
62.003
62.604
63.151
63.606
63.926
64.064
63.98
63.655
63.087
62.279
61.259
60.058
58.713
57.313
55.968
54.796
53.927
53.476
53.534
54.244
55.826
58.38
61.864
66.06
70.472
74.61
78.148
80.686
81.717
81.038
78.789
75.596
72.887
72.052
73.963
79.416
88.981
102.462
118.892
136.252
151.057
159.611
158.66
145.059
116.328
71.146
9.625
-66.349
-152.987
-245.289
-337.388
-422.905
-495.664
-549.719
-580.81
-586.504
-565.213
-519.002
-452.256
-368.249
-272.734
-169.505
-60.965
42.965
133.63
202.426
241.615
256.5
253.512
238.998
221.173
199.961
176.237
153.275
131.414
113.168
100.096
90.975
85.206
81.767
78.758
74.799
69.245
61.846
52.961
43.335
33.5
23.875
15.07
7.69
2.022
-1.86
-4.117
-5.1
-5.078
-4.281
-2.989
-1.495
-0.077
1.046
1.753
1.989
1.711
0.879
-0.535
-2.546
-5.128
-8.238
-11.832
-15.867
-20.305
-25.095
-30.174
-35.469
-40.898
-46.405
-51.956
-57.53
-63.116
-68.711
-74.312
-79.928
-85.579
-91.285
-97.054
-102.893
-108.8
-114.775
-120.822
-126.945
-133.144
-139.415
-145.746
-152.122
-158.528
-164.943
-171.345
-177.706
-183.994
-190.18
-196.237
-202.136
-207.851
-213.355
-218.617
-223.609
-228.305
-232.676
-236.694
-240.33
-243.556
-246.346
-248.676
-250.524
-251.869
-252.692
-252.979
-252.715
-251.891
-250.499
-248.535
-245.996
-242.884
-239.203
-234.96
-230.166
-224.833
-218.977
-212.618
-205.775
-198.473
-190.739
-182.601
-174.088
-165.233
-156.07
-146.634
-136.961
-127.09
-117.057
-106.903
-96.667
-86.388
-76.108
-65.863
-55.693
-45.636
-35.726
-25.997
-16.483
-7.213
1.785
10.485
18.864
26.901
34.577
41.877
48.789
55.301
61.406
67.099
72.377
77.241
81.691
85.734
89.374
92.622
95.487
97.981
100.118
101.914
103.385
104.549
105.423
106.029
106.385
106.512
106.432
106.163
105.728
105.146
104.437
103.619
102.712
101.731
100.695
99.617
98.512
97.394
96.274
95.163
94.071
93.006
91.976
90.988
90.046
89.155
88.318
87.538
86.817
86.154
85.551
85.006
84.519
84.087
83.709
83.383
83.104
82.872
82.681
82.529
82.413
82.329
82.274
82.244
82.238
82.253
82.287
82.337
82.403
82.483
82.577
82.682
82.798
82.926
83.063
83.211
83.369
83.537
83.715
83.904
84.105
84.317
84.541
84.777
85.025
85.284
85.554
85.834
86.122
86.416
86.716
87.02
87.324
87.628
87.928
88.222
88.505
88.774
89.025
89.254
89.456
89.627
89.763
89.859
89.912
89.917
89.872
89.773
89.618
89.402
89.125
88.783
88.375
87.9
87.358
86.746
86.067
85.321
84.514
83.651
82.74
81.786
80.797
79.783
78.752
77.712
76.67
75.628
74.593
73.57
72.567
71.594
70.661
69.778
68.953
68.197
67.514
66.912
66.39
65.943
65.57
65.273
65.057
64.946
64.958
65.1
65.382
65.802
66.349
67.012
67.764
68.561
69.372
70.159
70.896
71.576
72.183
72.702
73.111
73.354
73.379
73.165
72.701
72.008
71.128
70.092
68.95
67.795
66.71
65.774
65.043
64.55
64.368
64.557
65.233
66.575
68.66
71.494
74.945
78.547
81.71
83.912
84.502
82.942
79.093
72.779
64.539
56.139
49.485
46.565
48
51.952
56.562
61.981
71.692
90.019
116.558
142.274
150.377
126.105
63.666
-30.642
-142.489
-261.455
-379.32
-490.795
-587.736
-651.99
-672.469
-644.439
-572.662
-475.591
-364.003
-245.079
-126.943
-15.129
78.726
143.874
179.262
192.753
195.666
196.257
196.343
191.159
177.469
157.239
134.732
114.965
100.437
90.55
84.036
79.894
77.374
75.426
72.708
68.378
62.278
54.812
46.667
38.303
30.03
22.346
15.829
10.817
7.387
5.378
4.462
4.39
4.957
5.914
6.984
7.905
8.476
8.59
8.205
7.282
5.787
3.696
0.997
-2.282
-6.102
-10.422
-15.201
-20.397
-25.955
-31.806
-37.876
-44.086
-50.379
-56.719
-63.079
-69.442
-75.798
-82.139
-88.47
-94.803
-101.141
-107.483
-113.835
-120.205
-126.61
-133.058
-139.539
-146.035
-152.531
-159.011
-165.455
-171.829
-178.086
-184.187
-190.117
-195.882
-201.497
-206.959
-212.242
-217.304
-222.105
-226.633
-230.9
-234.916
-238.668
-242.135
-245.321
-248.277
-251.079
-253.754
-256.267
-258.524
-260.443
-261.993
-263.158
-263.929
-264.26
-264.074
-263.305
-261.915
-259.912
-257.297
-254.021
-249.965
-244.993
-239.047
-232.163
-224.436
-215.926
-206.635
-196.581
-185.834
-174.544
-162.875
-150.942
-138.805
-126.487
-114.042
-101.582
-89.279
-77.302
-65.743
-54.636
-43.989
-33.869
-24.385
-15.597
-7.477
0.093
7.225
13.962
20.296
26.2
31.692
36.826
41.672
46.275
50.639
54.764
58.663
62.4
66.063
69.687
73.236
76.617
79.757
82.632
85.246
87.608
89.697
91.488
92.973
94.177
95.136
95.871
96.382
96.643
96.629
96.344
95.823
95.12
94.28
93.328
92.287
91.183
90.051
88.921
87.803
86.693
85.582
84.476
83.387
82.336
81.335
80.391
79.505
78.679
77.913
77.21
76.568
75.981
75.443
74.95
74.503
74.105
73.76
73.465
73.22
73.023
72.871
72.764
72.695
72.66
72.653
72.67
72.707
72.761
72.83
72.911
73.002
73.101
73.207
73.318
73.432
73.547
73.662
73.776
73.89
74.002
74.113
74.222
74.332
74.442
74.553
74.666
74.778
74.891
75.004
75.117
75.229
75.342
75.454
75.565
75.677
75.791
75.905
76.02
76.135
76.249
76.36
76.467
76.567
76.659
76.739
76.808
76.863
76.902
76.923
76.924
76.902
76.855
76.779
76.674
76.534
76.359
76.147
75.901
75.623
75.317
74.984
74.629
74.256
73.87
73.473
73.066
72.645
72.212
71.768
71.315
70.86
70.406
69.96
69.527
69.115
68.726
68.365
68.027
67.706
67.402
67.115
66.853
66.635
66.478
66.393
66.391
66.474
66.634
66.863
67.139
67.425
67.696
67.92
68.076
68.158
68.148
68.038
67.815
67.434
66.861
66.07
65.047
63.818
62.428
60.913
59.327
57.74
56.223
54.896
53.867
53.219
53.052
53.387
54.309
56.03
58.605
61.942
65.778
69.522
72.622
74.787
75.541
74.312
71.04
65.914
59.76
54.323
51.007
50.771
54.716
63.458
76.506
92.689
109.509
123.056
129.666
125.92
108.208
73.544
22.374
-41.96
-115.658
-192.693
-272.148
-358.76
-449.339
-538.284
-613.11
-648.989
-633.893
-563.323
-438.67
-282.549
-115.454
41.129
160.138
233.715
262.295
255.569
237.205
219.806
207.34
198.814
184.788
162.908
137.329
111.932
91.896
79.051
71.661
68.167
67.029
66.453
65.04
62.058
57.207
50.76
43.422
35.744
28.126
21.154
15.413
11.169
8.483
7.163
6.842
7.25
8.162
9.334
10.533
11.538
12.186
12.395
12.139
11.397
10.153
8.388
6.09
3.282
0
-3.712
-7.81
-12.258
-17.009
-22.015
-27.22
-32.56
-37.992
-43.491
-49.042
-54.641
-60.286
-65.976
-71.714
-77.514
-83.39
-89.347
-95.391
-101.518
-107.725
-114.013
-120.385
-126.837
-133.364
-139.952
-146.586
-153.248
-159.919
-166.575
-173.189
-179.732
-186.174
-192.488
-198.646
-204.621
-210.384
-215.906
-221.158
-226.111
-230.737
-235.006
-238.889
-242.358
-245.387
-247.95
-250.025
-251.593
-252.634
-253.134
-253.079
-252.46
-251.27
-249.504
-247.16
-244.239
-240.746
-236.687
-232.073
-226.916
-221.233
-215.04
-208.361
-201.218
-193.638
-185.649
-177.281
-168.567
-159.539
-150.234
-140.688
-130.94
-121.027
-110.991
-100.87
-90.706
-80.538
-70.405
-60.345
-50.396
-40.593
-30.97
-21.557
-12.384
-3.48
5.132
13.428
21.389
28.995
36.233
43.09
49.554
55.619
61.28
66.534
71.38
75.822
79.862
83.508
86.767
89.65
92.169
94.337
96.171
97.686
98.9
99.833
100.505
100.934
101.142
101.149
100.976
100.642
100.166
99.568
98.864
98.073
97.211
96.292
95.331
94.342
93.336
92.325
91.32
90.328
89.359
88.42
87.518
86.656
85.84
85.074
84.36
83.699
83.093
82.542
82.046
81.603
81.21
80.867
80.569
80.313
80.097
79.916
79.766
79.645
79.548
79.473
79.417
79.377
79.351
79.337
79.333
79.337
79.347
79.361
79.378
79.395
79.411
79.423
79.43
79.43
79.421
79.401
79.368
79.322
79.26
79.18
79.08
78.959
78.814
78.644
78.447
78.221
77.964
77.676
77.355
77
76.61
76.184
75.72
75.217
74.674
74.091
73.467
72.801
72.093
71.346
70.562
69.747
68.907
68.045
67.169
66.286
65.401
64.52
63.647
62.784
61.933
61.1
60.289
59.507
58.761
58.064
57.422
56.846
56.342
55.915
55.567
55.298
55.105
54.988
54.951
55.009
55.175
55.457
55.862
56.39
57.026
57.753
58.546
59.368
60.18
60.949
61.641
62.239
62.732
63.12
63.394
63.527
63.493
63.275
62.867
62.295
61.6
60.817
60.004
59.239
58.585
58.14
58.008
58.262
58.98
60.198
61.912
64.2
67.168
70.79
74.918
79.175
82.981
85.903
87.608
87.664
85.734
81.748
75.919
69.174
62.948
58.372
56.395
57.757
62.45
69.855
78.799
86.717
90.373
87.092
73.804
47.787
8.425
-44.104
-107.356
-175.015
-242.76
-307.854
-368.071
-425.127
-474.583
-505.656
-508.576
-472.474
-398.538
-300.84
-193.429
-91.743
-2.861
75.773
143.824
200.689
244.596
271.375
281.116
276.634
260.39
235.993
207.235
177.203
149.074
124.947
105.232
89.664
77.936
69.453
63.283
58.292
53.098
46.884
39.651
31.699
23.465
15.357
7.73
1.049
-4.106
-7.421
-8.93
-8.874
-7.71
-5.86
-3.618
-1.297
0.838
2.601
3.849
4.514
4.6
4.117
3.055
1.396
-0.922
-3.96
-7.714
-12.114
-17.026
-22.311
-27.866
-33.594
-39.428
-45.302
-51.161
-56.986
-62.795
-68.614
-74.456
-80.319
-86.164
-91.949
-97.669
-103.347
-109.032
-114.758
-120.531
-126.345
-132.199
-138.101
-144.048
-150.008
-155.921
-161.741
-167.446
-173.048
-178.57
-184.016
-189.363
-194.566
-199.578
-204.379
-208.975
-213.377
-217.574
-221.552
-225.312
-228.889
-232.338
-235.675
-238.851
-241.76
-244.3
-246.409
-248.058
-249.242
-249.945
-250.126
-249.732
-248.724
-247.086
-244.798
-241.814
-238.044
-233.387
-227.808
-221.358
-214.161
-206.337
-197.962
-189.086
-179.751
-170.02
-159.97
-149.669
-139.162
-128.478
-117.668
-106.812
-96.037
-85.476
-75.204
-65.233
-55.524
-46.044
-36.792
-27.779
-19.014
-10.486
-2.185
5.875
13.657
21.122
28.249
35.043
41.534
47.754
53.711
59.385
64.744
69.762
74.426
78.728
82.658
86.197
89.337
92.088
94.476
96.528
98.263
99.694
100.825
101.666
102.236
102.552
102.636
102.508
102.184
101.686
101.036
100.258
99.371
98.391
97.329
96.195
95.002
93.763
92.49
91.194
89.884
88.571
87.267
85.98
84.721
83.496
82.311
81.17
80.079
79.042
78.06
77.137
76.272
75.466
74.721
74.036
73.41
72.844
72.335
71.884
71.489
71.149
70.863
70.629
70.446
70.312
70.226
70.186
70.19
70.236
70.323
70.449
70.614
70.814
71.047
71.311
71.603
71.921
72.261
72.62
72.994
73.381
73.777
74.18
74.588
74.996
75.403
75.806
76.201
76.585
76.955
77.306
77.634
77.935
78.205
78.44
78.635
78.787
78.891
78.946
78.948
78.894
78.78
78.603
78.361
78.053
77.676
77.23
76.714
76.128
75.478
74.769
74.006
73.194
72.34
71.451
70.535
69.596
68.64
67.668
66.683
65.69
64.695
63.706
62.732
61.783
60.868
60
59.187
58.437
57.755
57.138
56.59
56.117
55.728
55.443
55.279
55.246
55.355
55.61
56
56.505
57.096
57.725
58.356
58.954
59.483
59.927
60.258
60.46
60.525
60.42
60.114
59.592
58.839
57.876
56.779
55.609
54.453
53.43
52.609
52.103
52.041
52.505
53.605
55.41
57.913
61.204
65.422
70.535
76.399
82.649
88.619
93.804
97.797
100.006
99.996
97.665
93.182
87.446
81.852
77.483
75.395
76.569
81.169
88.622
97.575
105.363
108.92
105.301
90.888
62.427
18.191
-40.693
-109.805
-183.783
-258.648
-335.266
-415.991
-497.486
-569.522
-613.088
-609.145
-551.678
-449.182
-322.83
-195.97
-83.377
10.497
88.545
152.952
203.045
236.541
250.541
246.254
228.279
201.429
171.31
142.732
118.246
99.442
86.945
79.975
77.176
77.121
77.879
77.5
75.027
70.152
63.022
54.313
44.725
34.834
25.396
17.188
10.582
5.683
2.397
0.406
-0.542
-0.629
-0.12
0.726
1.692
2.55
3.149
3.422
3.296
2.718
1.659
0.077
-2.039
-4.657
-7.744
-11.259
-15.161
-19.426
-24.014
-28.874
-33.941
-39.145
-44.432
-49.775
-55.153
-60.557
-65.982
-71.419
-76.877
-82.379
-87.94
-93.572
-99.28
-105.061
-110.913
-116.842
-122.851
-128.944
-135.113
-141.349
-147.638
-153.965
-160.314
-166.662
-172.982
-179.243
-185.415
-191.472
-197.385
-203.128
-208.671
-213.985
-219.04
-223.809
-228.264
-232.375
-236.113
-239.451
-242.362
-244.822
-246.808
-248.301
-249.281
-249.731
-249.639
-248.993
-247.784
-246.007
-243.658
-240.736
-237.244
-233.188
-228.576
-223.419
-217.733
-211.534
-204.844
-197.685
-190.085
-182.07
-173.673
-164.925
-155.862
-146.52
-136.937
-127.151
-117.201
-107.127
-96.969
-86.769
-76.565
-66.397
-56.302
-46.319
-36.482
-26.827
-17.385
-8.187
0.739
9.365
17.669
25.628
33.222
40.436
47.254
53.665
59.66
65.234
70.382
75.104
79.403
83.282
86.75
89.815
92.489
94.786
96.721
98.311
99.573
100.527
101.192
101.589
101.739
101.662
101.38
100.914
100.285
99.511
98.614
97.612
96.524
95.366
94.156
92.909
91.639
90.361
89.088
87.829
86.597
85.4
84.245
83.139
82.088
81.095
80.163
79.294
78.488
77.743
77.06
76.435
75.865
75.348
74.879
74.455
74.072
73.726
73.414
73.132
72.876
72.643
72.43
72.235
72.056
71.891
71.739
71.599
71.47
71.352
71.245
71.149
71.064
70.991
70.931
70.884
70.852
70.835
70.837
70.859
70.903
70.973
71.07
71.197
71.356
71.55
71.78
72.047
72.351
72.691
73.068
73.48
73.925
74.401
74.906
75.435
75.986
76.554
77.132
77.716
78.299
78.875
79.438
79.98
80.496
80.978
81.422
81.822
82.173
82.47
82.707
82.879
82.981
83.009
82.959
82.828
82.611
82.307
81.916
81.44
80.884
80.254
79.554
78.791
77.973
77.107
76.202
75.262
74.29
73.291
72.272
71.245
70.219
69.205
68.21
67.246
66.322
65.448
64.63
63.868
63.16
62.507
61.92
61.413
61.012
60.735
60.594
60.595
60.745
61.039
61.468
62.005
62.604
63.226
63.841
64.421
64.951
65.403
65.744
65.936
65.928
65.679
65.161
64.37
63.315
62.031
60.562
58.96
57.336
55.812
54.521
53.603
53.172
53.312
54.139
55.849
58.54
62.189
66.614
71.335
75.855
79.816
82.795
84.256
83.914
81.808
78.44
75.159
73.367
73.978
77.858
85.707
97.5
112.474
128.787
142.931
151.136
150.337
137.415
109.464
64.633
2.257
-75.16
-161.364
-249.948
-335.94
-418.246
-497.812
-571.062
-630.308
-662.446
-653.736
-600.293
-504.267
-373.137
-222.061
-65.175
79.956
190.909
256.427
275.365
258.48
228.903
202.013
183.757
172.836
160.787
144.834
127.116
110.386
98.683
92.671
90.291
89.893
89.428
87.161
82.65
75.862
67.091
57.133
46.726
36.408
26.815
18.585
12.02
7.197
4.009
2.126
1.274
1.251
1.806
2.694
3.696
4.582
5.185
5.428
5.232
4.545
3.339
1.573
-0.764
-3.638
-7.012
-10.84
-15.076
-19.691
-24.641
-29.873
-35.32
-40.905
-46.573
-52.293
-58.045
-63.818
-69.609
-75.408
-81.226
-87.083
-92.998
-98.984
-105.044
-111.175
-117.377
-123.654
-130.011
-136.448
-142.959
-149.531
-156.149
-162.797
-169.455
-176.099
-182.7
-189.224
-195.64
-201.919
-208.033
-213.952
-219.646
-225.085
-230.238
-235.077
-239.573
-243.697
-247.418
-250.71
-253.544
-255.898
-257.75
-259.079
-259.867
-260.099
-259.763
-258.849
-257.349
-255.26
-252.58
-249.309
-245.454
-241.023
-236.027
-230.481
-224.403
-217.813
-210.735
-203.196
-195.223
-186.848
-178.103
-169.022
-159.642
-149.999
-140.134
-130.085
-119.891
-109.594
-99.234
-88.851
-78.485
-68.174
-57.956
-47.867
-37.942
-28.215
-18.716
-9.476
-0.52
8.125
16.437
24.396
31.985
39.19
45.999
52.404
58.397
63.976
69.14
73.889
78.228
82.162
85.699
88.85
91.626
94.04
96.108
97.846
99.271
100.4
101.253
101.848
102.203
102.338
102.273
102.025
101.614
101.059
100.377
99.587
98.705
97.748
96.731
95.668
94.573
93.457
92.332
91.206
90.089
88.989
87.912
86.864
85.849
84.873
83.936
83.041
82.19
81.381
80.615
79.891
79.207
78.563
77.956
77.384
76.847
76.343
75.869
75.424
75.006
74.614
74.244
73.896
73.567
73.255
72.961
72.682
72.417
72.167
71.932
71.71
71.503
71.311
71.133
70.971
70.826
70.697
70.587
70.497
70.427
70.381
70.358
70.363
70.394
70.455
70.546
70.668
70.82
71.004
71.218
71.461
71.731
72.029
72.351
72.696
73.062
73.445
73.845
74.257
74.678
75.106
75.535
75.962
76.384
76.796
77.193
77.571
77.927
78.257
78.558
78.825
79.056
79.247
79.394
79.494
79.544
79.54
79.48
79.361
79.182
78.944
78.648
78.3
77.904
77.464
76.989
76.483
75.954
75.406
74.842
74.261
73.666
73.063
72.455
71.85
71.252
70.666
70.101
69.562
69.053
68.576
68.131
67.713
67.327
66.974
66.669
66.435
66.289
66.243
66.303
66.472
66.743
67.107
67.539
67.995
68.441
68.834
69.142
69.341
69.401
69.291
68.98
68.413
67.542
66.358
64.872
63.11
61.131
58.97
56.678
54.375
52.204
50.313
48.866
47.985
47.727
48.211
49.637
52.073
55.492
59.657
64.006
68.093
71.724
74.51
75.905
75.756
74.089
71.428
69.274
68.563
69.406
72.676
79.36
89.073
101.214
113.071
118.825
116.058
104.489
84.321
58.978
27.567
-14.226
-70.075
-144.885
-238.098
-345.728
-460.733
-570.155
-661.849
-718.763
-724.261
-671.089
-557.282
-398.023
-220.165
-50.41
83.543
170.415
214.062
225.274
223.911
221.416
219.77
217.417
206.824
185.936
158.977
130.834
107.256
90.707
80.23
74.405
71.627
70.415
69.449
67.339
63.3
57.306
49.762
41.336
32.594
24.018
16.223
9.788
5.004
1.865
0.149
-0.484
-0.304
0.458
1.549
2.715
3.712
4.364
4.584
4.333
3.586
2.324
0.518
-1.846
-4.744
-8.135
-11.973
-16.214
-20.82
-25.745
-30.932
-36.315
-41.822
-47.4
-53.021
-58.666
-64.33
-70.009
-75.7
-81.406
-87.148
-92.941
-98.794
-104.713
-110.694
-116.738
-122.85
-129.032
-135.288
-141.611
-147.991
-154.414
-160.865
-167.327
-173.777
-180.189
-186.533
-192.781
-198.905
-204.881
-210.68
-216.277
-221.642
-226.748
-231.568
-236.075
-240.241
-244.039
-247.439
-250.418
-252.95
-255.014
-256.589
-257.657
-258.202
-258.211
-257.673
-256.58
-254.926
-252.708
-249.924
-246.578
-242.674
-238.222
-233.232
-227.717
-221.696
-215.187
-208.213
-200.8
-192.975
-184.765
-176.204
-167.322
-158.154
-148.737
-139.105
-129.297
-119.352
-109.307
-99.203
-89.077
-78.97
-68.917
-58.955
-49.121
-39.447
-29.966
-20.707
-11.7
-2.97
5.457
13.56
21.319
28.717
35.737
42.369
48.603
54.431
59.849
64.855
69.45
73.636
77.418
80.803
83.8
86.419
88.673
90.575
92.141
93.387
94.332
94.993
95.389
95.54
95.465
95.184
94.717
94.082
93.3
92.388
91.365
90.248
89.055
87.802
86.505
85.178
83.836
82.49
81.152
79.833
78.543
77.29
76.081
74.924
73.823
72.783
71.808
70.901
70.064
69.298
68.602
67.978
67.423
66.938
66.52
66.167
65.879
65.651
65.484
65.373
65.316
65.312
65.356
65.448
65.584
65.761
65.977
66.23
66.518
66.838
67.187
67.563
67.964
68.387
68.83
69.291
69.768
70.259
70.762
71.275
71.798
72.327
72.863
73.401
73.941
74.48
75.015
75.543
76.062
76.569
77.06
77.532
77.984
78.41
78.807
79.172
79.501
79.79
80.036
80.235
80.382
80.475
80.512
80.491
80.411
80.271
80.069
79.807
79.484
79.099
78.653
78.146
77.578
76.95
76.266
75.528
74.742
73.916
73.057
72.172
71.271
70.362
69.451
68.545
67.648
66.763
65.895
65.049
64.234
63.457
62.727
62.053
61.442
60.899
60.429
60.031
59.707
59.452
59.266
59.148
59.108
59.167
59.343
59.644
60.071
60.618
61.274
62.026
62.851
63.709
64.559
65.36
66.08
66.697
67.203
67.58
67.791
67.785
67.512
66.959
66.15
65.107
63.856
62.421
60.826
59.173
57.608
56.255
55.251
54.698
54.632
55.166
56.477
58.606
61.487
64.868
68.233
71.191
73.466
74.622
74.319
72.499
69.344
65.642
62.571
60.974
61.647
65.433
72.533
82.439
93.788
104.075
110.634
110.959
102.109
81.244
46.363
-1.861
-59.667
-122.864
-188.537
-257.927
-333.6
-412.173
-483.897
-531.511
-539.065
-502.31
-426.338
-327.874
-222.63
-118.004
-21.916
64.889
139.197
192.474
226.196
241.377
240.741
232.191
216.314
193.832
168.348
141.555
117.19
98.215
84.607
75.886
70.929
68.351
66.832
64.923
61.729
56.958
50.801
43.833
36.571
29.429
22.948
17.678
13.886
11.606
10.665
10.729
11.507
12.76
14.217
15.604
16.727
17.449
17.693
17.45
16.7
15.424
13.621
11.299
8.478
5.198
1.498
-2.583
-6.989
-11.659
-16.53
-21.531
-26.612
-31.744
-36.907
-42.094
-47.304
-52.538
-57.803
-63.113
-68.478
-73.903
-79.393
-84.946
-90.566
-96.256
-102.021
-107.865
-113.788
-119.784
-125.843
-131.953
-138.1
-144.266
-150.431
-156.568
-162.656
-168.671
-174.592
-180.398
-186.064
-191.567
-196.88
-201.978
-206.835
-211.423
-215.715
-219.682
-223.299
-226.54
-229.381
-231.803
-233.784
-235.306
-236.353
-236.912
-236.97
-236.518
-235.548
-234.053
-232.031
-229.48
-226.403
-222.804
-218.688
-214.066
-208.949
-203.35
-197.287
-190.779
-183.847
-176.513
-168.805
-160.749
-152.376
-143.719
-134.809
-125.683
-116.376
-106.925
-97.368
-87.741
-78.083
-68.429
-58.815
-49.276
-39.846
-30.558
-21.442
-12.528
-3.845
4.581
12.727
20.569
28.088
35.265
42.085
48.533
54.598
60.272
65.547
70.418
74.885
78.946
82.606
85.869
88.743
91.236
93.362
95.132
96.563
97.669
98.469
98.981
99.224
99.218
98.982
98.537
97.904
97.104
96.155
95.08
93.896
92.623
91.28
89.883
88.452
87
85.545
84.099
82.678
81.294
79.959
78.682
77.475
76.345
75.298
74.342
73.481
72.718
72.055
71.494
71.035
70.677
70.42
70.262
70.199
70.229
70.348
70.551
70.833
71.19
71.615
72.103
72.647
73.243
73.884
74.564
75.277
76.019
76.782
77.562
78.352
79.147
79.94
80.725
81.496
82.247
82.972
83.667
84.325
84.943
85.516
86.04
86.51
86.923
87.274
87.56
87.778
87.924
87.994
87.987
87.901
87.735
87.49
87.164
86.76
86.277
85.717
85.081
84.37
83.586
82.73
81.804
80.812
79.757
78.646
77.487
76.287
75.058
73.807
72.545
71.281
70.024
68.781
67.555
66.351
65.174
64.03
62.926
61.873
60.879
59.952
59.101
58.331
57.645
57.046
56.532
56.102
55.751
55.482
55.306
55.246
55.321
55.54
55.903
56.403
57.029
57.766
58.588
59.451
60.308
61.114
61.831
62.438
62.926
63.275
63.447
63.385
63.039
62.401
61.502
60.371
59.034
57.517
55.847
54.134
52.543
51.212
50.292
49.892
50.039
50.848
52.508
55.07
58.459
62.384
66.257
69.629
72.248
73.7
73.651
72.074
69.115
65.601
62.903
61.98
63.646
68.747
77.334
88.687
101.482
113.072
120.368
120.702
110.912
87.87
49.569
-3.076
-65.89
-133.855
-201.529
-269.187
-342.299
-419.692
-497.564
-563.477
-592.359
-571.411
-495.205
-366.07
-210.102
-51.218
88.221
182.68
229.34
234.812
211.868
184.307
163.38
151.073
145.219
137.04
124.236
109.585
95.722
86.388
82.185
81.043
81.506
81.941
80.918
78.12
73.432
66.952
59.329
51.198
43.026
35.363
28.74
23.388
19.401
16.723
15.086
14.268
14.061
14.205
14.47
14.647
14.587
14.208
13.45
12.262
10.605
8.449
5.786
2.632
-1.002
-5.098
-9.618
-14.53
-19.78
-25.305
-31.044
-36.927
-42.9
-48.928
-54.983
-61.046
-67.11
-73.169
-79.223
-85.284
-91.358
-97.445
-103.55
-109.67
-115.802
-121.951
-128.118
-134.305
-140.51
-146.728
-152.946
-159.151
-165.327
-171.454
-177.511
-183.47
-189.306
-194.996
-200.516
-205.845
-210.958
-215.832
-220.444
-224.769
-228.786
-232.471
-235.799
-238.749
-241.298
-243.426
-245.113
-246.344
-247.103
-247.375
-247.15
-246.419
-245.173
-243.409
-241.125
-238.319
-234.995
-231.157
-226.815
-221.977
-216.659
-210.875
-204.645
-197.988
-190.929
-183.492
-175.705
-167.597
-159.197
-150.537
-141.651
-132.571
-123.331
-113.966
-104.511
-95.001
-85.471
-75.955
-66.488
-57.102
-47.83
-38.702
-29.747
-20.993
-12.467
-4.192
3.809
11.517
18.912
25.98
32.706
39.079
45.09
50.733
56.004
60.9
65.422
69.574
73.359
76.785
79.859
82.593
84.996
87.082
88.863
90.354
91.571
92.528
93.242
93.729
94.007
94.092
94.001
93.751
93.357
92.837
92.205
91.477
90.667
89.79
88.858
87.884
86.881
85.86
84.83
83.801
82.78
81.774
80.79
79.832
78.903
78.007
77.146
76.321
75.534
74.785
74.074
73.402
72.768
72.17
71.608
71.081
70.588
70.127
69.697
69.297
68.926
68.584
68.269
67.981
67.718
67.478
67.261
67.065
66.889
66.73
66.589
66.463
66.353
66.258
66.178
66.115
66.068
66.037
66.025
66.03
66.054
66.095
66.154
66.231
66.325
66.435
66.56
66.7
66.853
67.018
67.191
67.37
67.55
67.73
67.905
68.072
68.226
68.364
68.484
68.583
68.658
68.708
68.73
68.722
68.683
68.608
68.496
68.346
68.154
67.918
67.637
67.312
66.943
66.536
66.093
65.618
65.117
64.594
64.056
63.505
62.946
62.376
61.8
61.222
60.646
60.082
59.537
59.018
58.533
58.09
57.692
57.346
57.051
56.799
56.593
56.432
56.326
56.297
56.363
56.533
56.816
57.209
57.7
58.279
58.92
59.58
60.225
60.816
61.325
61.744
62.056
62.244
62.287
62.133
61.735
61.077
60.161
59.014
57.688
56.227
54.693
53.18
51.794
50.664
49.906
49.607
49.853
50.683
52.192
54.587
57.917
62.049
66.663
71.161
75.008
77.888
79.327
78.726
75.942
71.178
65.256
59.803
56.104
54.998
57.402
63.831
73.821
86.195
98.538
107.237
108.945
100.405
78.299
40.259
-13.223
-78.99
-152.958
-231.162
-313.654
-401.901
-491.954
-573.496
-629.834
-645.284
-613.789
-539.954
-435.99
-313.54
-181.807
-49.69
72.347
171.047
236.687
268.668
276.199
271.702
263.594
253.553
236.832
210.105
175.155
136.772
100.992
71.323
48.185
30.955
19.222
13.152
12.129
14.664
19.151
23.932
28.178
31.828
34.37
34.981
33.515
30.274
25.936
21.66
18.001
14.941
12.62
11.233
10.796
11.24
12.213
13.058
13.412
13.192
12.345
10.91
8.894
6.254
3.051
-0.569
-4.51
-8.72
-13.171
-17.883
-22.837
-27.972
-33.244
-38.616
-44.07
-49.609
-55.235
-60.947
-66.748
-72.648
-78.652
-84.767
-90.99
-97.314
-103.73
-110.227
-116.799
-123.441
-130.146
-136.904
-143.703
-150.522
-157.341
-164.135
-170.874
-177.53
-184.072
-190.473
-196.705
-202.739
-208.549
-214.107
-219.383
-224.352
-228.984
-233.252
-237.125
-240.579
-243.588
-246.131
-248.186
-249.735
-250.762
-251.252
-251.194
-250.579
-249.401
-247.654
-245.338
-242.452
-239
-234.989
-230.429
-225.33
-219.708
-213.579
-206.963
-199.883
-192.363
-184.428
-176.109
-167.435
-158.44
-149.157
-139.622
-129.872
-119.942
-109.873
-99.702
-89.469
-79.211
-68.967
-58.773
-48.667
-38.684
-28.857
-19.22
-9.804
-0.637
8.253
16.84
25.101
33.016
40.565
47.731
54.502
60.864
66.81
72.332
77.427
82.091
86.327
90.136
93.525
96.501
99.074
101.254
103.057
104.495
105.587
106.349
106.8
106.959
106.848
106.486
105.895
105.097
104.114
102.967
101.678
100.269
98.76
97.172
95.525
93.837
92.126
90.411
88.706
87.027
85.389
83.804
82.283
80.837
79.476
78.206
77.034
75.965
75.002
74.148
73.404
72.771
72.248
71.832
71.522
71.315
71.206
71.191
71.265
71.422
71.657
71.961
72.329
72.754
73.228
73.744
74.295
74.874
75.473
76.087
76.709
77.331
77.948
78.555
79.145
79.714
80.257
80.771
81.251
81.695
82.101
82.468
82.793
83.076
83.317
83.515
83.67
83.783
83.851
83.876
83.859
83.8
83.7
83.561
83.382
83.167
82.917
82.634
82.319
81.972
81.597
81.192
80.762
80.306
79.826
79.324
78.8
78.257
77.697
77.121
76.53
75.925
75.305
74.673
74.029
73.374
72.707
72.031
71.345
70.654
69.963
69.278
68.602
67.94
67.299
66.683
66.098
65.547
65.026
64.537
64.08
63.658
63.272
62.927
62.625
62.37
62.168
62.021
61.93
61.895
61.906
61.962
62.065
62.216
62.431
62.724
63.101
63.571
64.14
64.793
65.514
66.272
67.018
67.709
68.312
68.788
69.113
69.258
69.191
68.891
68.329
67.469
66.289
64.776
62.938
60.845
58.583
56.254
53.994
51.903
50.101
48.735
47.917
47.783
48.451
49.962
52.424
55.987
60.644
66.292
72.618
78.994
84.868
89.75
92.952
94.011
92.845
89.534
84.88
80.192
76.473
74.915
76.727
82.069
90.247
100.068
109.02
113.863
111.583
98.225
69.603
25.436
-31.26
-97.781
-169.534
-247.155
-337.936
-439.595
-544.21
-635.875
-686.122
-679.926
-614.971
-496.786
-347.728
-187.777
-33.135
95.984
187.778
237.414
247.078
232.263
210.495
191.976
180.766
172.717
161.238
145.926
129.043
113.688
103.404
98.228
96.318
96.311
96.319
94.68
90.936
85.022
77.191
68.198
58.712
49.171
40.17
32.357
26.04
21.313
18.092
16.059
14.958
14.614
14.788
15.244
15.777
16.168
16.265
16.007
15.33
14.19
12.569
10.429
7.764
4.603
0.98
-3.065
-7.49
-12.268
-17.358
-22.708
-28.256
-33.93
-39.676
-45.467
-51.284
-57.118
-62.968
-68.826
-74.702
-80.618
-86.591
-92.631
-98.746
-104.93
-111.186
-117.516
-123.926
-130.417
-136.985
-143.619
-150.306
-157.033
-163.781
-170.53
-177.253
-183.919
-190.499
-196.965
-203.291
-209.448
-215.407
-221.137
-226.61
-231.796
-236.666
-241.189
-245.334
-249.072
-252.374
-255.213
-257.564
-259.404
-260.711
-261.467
-261.657
-261.266
-260.286
-258.709
-256.53
-253.747
-250.364
-246.384
-241.816
-236.671
-230.963
-224.71
-217.932
-210.652
-202.897
-194.695
-186.077
-177.076
-167.727
-158.068
-148.137
-137.973
-127.619
-117.116
-106.507
-95.836
-85.146
-74.48
-63.88
-53.388
-43.043
-32.885
-22.948
-13.268
-3.875
5.201
13.932
22.295
30.269
37.834
44.975
51.679
57.936
63.739
69.084
73.97
78.397
82.372
85.9
88.99
91.655
93.909
95.767
97.247
98.369
99.155
99.626
99.808
99.724
99.4
98.861
98.134
97.245
96.217
95.076
93.846
92.549
91.207
89.84
88.468
87.108
85.776
84.488
83.256
82.093
81.008
80.009
79.105
78.3
77.597
77
76.51
76.125
75.845
75.666
75.585
75.595
75.691
75.865
76.109
76.414
76.772
77.173
77.607
78.065
78.537
79.013
79.486
79.947
80.387
80.801
81.181
81.522
81.819
82.069
82.267
82.413
82.504
82.54
82.521
82.447
82.32
82.141
81.914
81.64
81.325
80.971
80.583
80.167
79.727
79.269
78.798
78.321
77.843
77.369
76.905
76.456
76.028
75.625
75.253
74.915
74.614
74.355
74.138
73.967
73.84
73.758
73.72
73.723
73.767
73.847
73.961
74.104
74.273
74.464
74.672
74.891
75.116
75.34
75.558
75.763
75.949
76.111
76.242
76.337
76.391
76.401
76.362
76.27
76.122
75.912
75.638
75.297
74.886
74.403
73.849
73.223
72.53
71.776
70.967
70.109
69.21
68.279
67.323
66.349
65.362
64.365
63.362
62.362
61.373
60.402
59.458
58.543
57.667
56.837
56.056
55.326
54.644
54.009
53.422
52.896
52.442
52.082
51.831
51.697
51.691
51.82
52.084
52.477
52.976
53.545
54.153
54.776
55.389
55.965
56.463
56.837
57.045
57.036
56.772
56.233
55.401
54.273
52.864
51.188
49.295
47.293
45.296
43.436
41.852
40.651
39.999
40.133
41.195
43.188
45.943
49.061
52.139
54.914
57.068
58.121
57.789
56.18
53.918
52.299
52.646
55.684
61.912
71.984
86.102
103.564
122.594
139.875
151.726
155.586
149.054
129.243
93.771
41.297
-26.446
-103.835
-185.122
-267.039
-350.463
-437.891
-526.55
-605.879
-658.777
-669.851
-633.245
-555.567
-451.223
-330.843
-202.964
-72.904
52.568
155.655
223.567
251.956
245.905
224.428
201.586
183.133
169.444
154.455
136.5
117.999
101.372
89.826
83.803
81.473
81.351
81.494
80.092
76.539
70.707
62.871
53.806
44.2
34.557
25.494
17.654
11.348
6.653
3.45
1.399
0.224
-0.271
-0.327
-0.173
-0.01
-0.044
-0.415
-1.184
-2.408
-4.126
-6.354
-9.121
-12.425
-16.226
-20.475
-25.116
-30.094
-35.369
-40.893
-46.607
-52.448
-58.342
-64.238
-70.104
-75.922
-81.682
-87.377
-93
-98.56
-104.075
-109.564
-115.042
-120.515
-125.987
-131.462
-136.948
-142.456
-147.99
-153.552
-159.135
-164.731
-170.333
-175.927
-181.498
-187.027
-192.49
-197.864
-203.131
-208.268
-213.255
-218.071
-222.691
-227.091
-231.251
-235.145
-238.75
-242.041
-244.993
-247.582
-249.786
-251.584
-252.956
-253.882
-254.346
-254.33
-253.823
-252.811
-251.284
-249.236
-246.661
-243.556
-239.924
-235.767
-231.092
-225.909
-220.231
-214.073
-207.454
-200.395
-192.918
-185.049
-176.817
-168.25
-159.381
-150.242
-140.868
-131.293
-121.555
-111.691
-101.739
-91.737
-81.723
-71.734
-61.809
-51.982
-42.291
-32.768
-23.447
-14.359
-5.534
3.003
11.225
19.11
26.638
33.792
40.558
46.925
52.883
58.426
63.552
68.26
72.551
76.431
79.906
82.985
85.678
87.999
89.962
91.582
92.878
93.867
94.569
95.004
95.193
95.159
94.922
94.504
93.927
93.213
92.382
91.455
90.451
89.389
88.285
87.156
86.017
84.881
83.761
82.666
81.607
80.59
79.622
78.709
77.853
77.058
76.325
75.654
75.044
74.495
74.003
73.565
73.178
72.838
72.539
72.276
72.044
71.836
71.648
71.473
71.306
71.142
70.976
70.803
70.622
70.428
70.22
69.997
69.758
69.503
69.233
68.951
68.657
68.356
68.049
67.741
67.434
67.133
66.843
66.567
66.311
66.078
65.874
65.702
65.567
65.474
65.424
65.422
65.47
65.571
65.727
65.939
66.208
66.533
66.915
67.353
67.842
68.381
68.962
69.583
70.235
70.912
71.606
72.308
73.01
73.703
74.38
75.032
75.652
76.23
76.76
77.232
77.642
77.982
78.246
78.428
78.523
78.529
78.445
78.272
78.011
77.665
77.236
76.729
76.149
75.501
74.787
74.008
73.168
72.274
71.334
70.36
69.359
68.345
67.329
66.326
65.345
64.397
63.488
62.618
61.794
61.026
60.324
59.712
59.206
58.819
58.563
58.442
58.452
58.585
58.819
59.121
59.465
59.823
60.17
60.495
60.772
60.985
61.122
61.145
61.022
60.731
60.257
59.619
58.867
58.035
57.169
56.335
55.596
55.056
54.829
55.001
55.659
56.826
58.563
61.034
64.278
68.218
72.622
76.971
80.837
83.996
86.004
86.315
84.841
81.657
77.335
73.293
70.349
68.956
70.451
75.699
84.261
95.745
107.105
113.775
114.803
108.024
92.611
70.587
38.857
-4.125
-59.992
-134.967
-228.986
-336.901
-448.94
-543.676
-600.292
-609.82
-568.848
-487.24
-384.001
-266.854
-146.278
-33.901
67.552
146.439
197.124
226.822
239.105
241.789
240.299
230.976
213.347
189.214
161.767
136.835
117.535
104.182
96.126
91.78
89.829
88.894
87.177
83.607
77.864
70.174
61.216
51.597
41.776
32.372
24.118
17.428
12.426
8.996
6.802
5.579
5.147
5.268
5.695
6.21
6.596
6.705
6.479
5.86
4.801
3.278
1.253
-1.283
-4.298
-7.751
-11.593
-15.781
-20.281
-25.053
-30.045
-35.197
-40.443
-45.735
-51.049
-56.37
-61.693
-67.013
-72.327
-77.642
-82.981
-88.36
-93.794
-99.289
-104.843
-110.46
-116.144
-121.901
-127.732
-133.632
-139.591
-145.595
-151.631
-157.681
-163.725
-169.736
-175.686
-181.548
-187.295
-192.901
-198.341
-203.586
-208.609
-213.381
-217.876
-222.067
-225.925
-229.422
-232.532
-235.228
-237.487
-239.287
-240.607
-241.43
-241.738
-241.518
-240.76
-239.455
-237.598
-235.185
-232.215
-228.692
-224.621
-220.011
-214.873
-209.222
-203.076
-196.455
-189.382
-181.884
-173.988
-165.725
-157.127
-148.229
-139.067
-129.677
-120.097
-110.367
-100.526
-90.613
-80.671
-70.736
-60.85
-51.049
-41.371
-31.851
-22.523
-13.418
-4.567
4.003
12.266
20.198
27.778
34.987
41.811
48.235
54.248
59.844
65.016
69.763
74.085
77.986
81.47
84.546
87.224
89.518
91.44
93.009
94.242
95.159
95.779
96.125
96.218
96.081
95.736
95.207
94.516
93.684
92.733
91.685
90.559
89.375
88.151
86.905
85.653
84.411
83.192
82.01
80.876
79.8
78.791
77.858
77.006
76.239
75.563
74.977
74.485
74.084
73.773
73.55
73.409
73.347
73.358
73.436
73.573
73.765
74.004
74.282
74.595
74.934
75.295
75.671
76.056
76.445
76.834
77.218
77.593
77.956
78.303
78.633
78.943
79.232
79.498
79.739
79.955
80.146
80.312
80.452
80.566
80.655
80.722
80.767
80.793
80.802
80.797
80.779
80.752
80.717
80.676
80.63
80.58
80.526
80.468
80.407
80.341
80.269
80.189
80.101
80.003
79.892
79.766
79.621
79.456
79.269
79.058
78.82
78.554
78.258
77.934
77.583
77.208
76.811
76.394
75.959
75.51
75.05
74.579
74.095
73.599
73.091
72.573
72.051
71.528
71.01
70.504
70.019
69.564
69.144
68.761
68.411
68.094
67.816
67.583
67.409
67.306
67.278
67.334
67.482
67.717
68.025
68.375
68.722
69.036
69.295
69.479
69.579
69.58
69.457
69.203
68.806
68.254
67.539
66.642
65.546
64.292
62.957
61.627
60.421
59.413
58.634
58.161
58.067
58.424
59.336
60.85
62.946
65.693
69.21
73.475
78.368
83.482
88.094
91.615
93.588
93.526
91.127
86.407
79.656
71.896
64.784
59.716
57.86
60.083
66.292
75.594
86.538
96.356
101.352
98.078
83.106
53.669
9.05
-50.02
-121.774
-202.215
-285.768
-366.469
-437.343
-491.586
-524.642
-533.217
-515.037
-470.781
-403.432
-317.315
-219.054
-116.305
-15.54
76.788
154.276
213.183
251.982
270.67
271.712
259.008
236.168
207.605
178.483
152.204
130.71
115.042
104.665
98.328
95.027
93.168
90.587
86.15
79.455
70.461
59.86
48.381
36.519
25.042
14.83
6.299
-0.358
-5.135
-8.322
-10.097
-10.636
-10.302
-9.425
-8.287
-7.17
-6.227
-5.543
-5.233
-5.375
-6.019
-7.214
-8.951
-11.215
-14.021
-17.374
-21.302
-25.78
-30.694
-35.945
-41.435
-47.063
-52.775
-58.525
-64.249
-69.923
-75.55
-81.133
-86.7
-92.271
-97.834
-103.377
-108.881
-114.342
-119.792
-125.259
-130.757
-136.303
-141.9
-147.551
-153.271
-159.055
-164.876
-170.709
-176.519
-182.278
-187.97
-193.578
-199.08
-204.453
-209.666
-214.693
-219.508
-224.085
-228.394
-232.403
-236.08
-239.393
-242.323
-244.846
-246.941
-248.586
-249.761
-250.446
-250.629
-250.295
-249.432
-248.028
-246.075
-243.569
-240.509
-236.897
-232.737
-228.038
-222.81
-217.066
-210.825
-204.105
-196.929
-189.321
-181.307
-172.917
-164.182
-155.135
-145.81
-136.245
-126.476
-116.543
-106.486
-96.345
-86.161
-75.973
-65.82
-55.743
-45.778
-35.962
-26.33
-16.916
-7.75
1.135
9.713
17.958
25.847
33.359
40.477
47.186
53.475
59.334
64.756
69.739
74.281
78.383
82.049
85.287
88.104
90.513
92.525
94.158
95.427
96.352
96.953
97.249
97.264
97.018
96.536
95.839
94.951
93.894
92.691
91.365
89.937
88.427
86.857
85.245
83.61
81.967
80.333
78.722
77.146
75.619
74.149
72.746
71.419
70.174
69.016
67.95
66.978
66.102
65.322
64.637
64.045
63.544
63.131
62.802
62.553
62.379
62.275
62.237
62.259
62.336
62.463
62.634
62.844
63.089
63.363
63.662
63.984
64.324
64.68
65.048
65.427
65.815
66.208
66.606
67.006
67.406
67.806
68.204
68.6
68.994
69.386
69.775
70.162
70.548
70.931
71.312
71.69
72.064
72.432
72.795
73.149
73.495
73.831
74.154
74.464
74.757
75.032
75.284
75.51
75.706
75.868
75.991
76.072
76.107
76.093
76.025
75.903
75.725
75.487
75.189
74.829
74.405
73.916
73.364
72.747
72.067
71.324
70.523
69.669
68.768
67.829
66.858
65.862
64.852
63.835
62.819
61.811
60.814
59.835
58.88
57.958
57.079
56.253
55.492
54.807
54.208
53.704
53.3
52.999
52.796
52.69
52.683
52.778
52.989
53.33
53.807
54.427
55.188
56.074
57.067
58.134
59.23
60.319
61.365
62.337
63.217
63.989
64.641
65.162
65.52
65.676
65.606
65.288
64.727
63.978
63.086
62.12
61.176
60.314
59.623
59.218
59.171
59.566
60.458
61.828
63.747
66.385
69.748
73.707
77.937
81.793
84.743
86.467
86.454
84.185
79.545
72.705
64.511
56.611
50.362
46.738
46.745
50.901
58.804
69.347
80.116
87.569
88.296
78.929
56.186
17.363
-37.106
-103.365
-176.928
-252.371
-329.299
-412.426
-499.651
-583.219
-647.28
-668.325
-635.181
-549.103
-420.191
-269.714
-114.89
30.948
152.548
241.04
291.994
307.551
300.909
284.653
266.056
247.278
223.569
192.322
155.981
117.874
82.438
52.313
27.527
8.329
-4.933
-12.78
-16.017
-15.117
-10.71
-3.414
6.039
15.928
24.424
30.738
34.604
35.891
34.802
31.489
26.358
20.566
15.134
10.515
6.887
4.131
2.008
0.43
-0.817
-2.201
-4.039
-6.48
-9.563
-13.144
-17.092
-21.368
-25.91
-30.633
-35.49
-40.432
-45.427
-50.495
-55.645
-60.872
-66.175
-71.545
-76.979
-82.487
-88.084
-93.782
-99.589
-105.503
-111.519
-117.63
-123.826
-130.102
-136.45
-142.858
-149.316
-155.81
-162.325
-168.85
-175.367
-181.853
-188.279
-194.62
-200.849
-206.94
-212.868
-218.607
-224.127
-229.401
-234.403
-239.105
-243.477
-247.493
-251.122
-254.34
-257.121
-259.443
-261.286
-262.633
-263.468
-263.777
-263.551
-262.782
-261.462
-259.59
-257.163
-254.185
-250.658
-246.592
-241.995
-236.879
-231.261
-225.158
-218.591
-211.582
-204.157
-196.342
-188.168
-179.666
-170.868
-161.809
-152.525
-143.051
-133.424
-123.684
-113.866
-104.009
-94.148
-84.319
-74.557
-64.895
-55.364
-45.995
-36.817
-27.854
-19.132
-10.674
-2.499
5.372
12.925
20.144
27.017
33.535
39.689
45.475
50.888
55.929
60.597
64.896
68.831
72.409
75.638
78.528
81.091
83.339
85.288
86.95
88.342
89.481
90.381
91.06
91.533
91.818
91.929
91.884
91.696
91.381
90.953
90.426
89.812
89.125
88.376
87.578
86.74
85.873
84.986
84.089
83.188
82.292
81.407
80.539
79.693
78.872
78.081
77.322
76.596
75.907
75.254
74.638
74.059
73.517
73.011
72.542
72.107
71.708
71.342
71.009
70.709
70.44
70.203
69.996
69.819
69.671
69.552
69.462
69.399
69.363
69.353
69.367
69.404
69.464
69.544
69.645
69.763
69.9
70.054
70.225
70.412
70.615
70.833
71.067
71.314
71.576
71.85
72.134
72.428
72.73
73.039
73.353
73.669
73.984
74.298
74.606
74.906
75.194
75.466
75.719
75.949
76.153
76.327
76.469
76.574
76.642
76.669
76.653
76.593
76.485
76.327
76.116
75.852
75.532
75.155
74.719
74.224
73.674
73.072
72.422
71.729
70.996
70.229
69.436
68.621
67.79
66.942
66.081
65.213
64.344
63.482
62.635
61.812
61.02
60.27
59.571
58.931
58.352
57.833
57.374
56.981
56.665
56.447
56.342
56.358
56.502
56.778
57.178
57.687
58.278
58.9
59.513
60.084
60.583
60.994
61.296
61.458
61.454
61.252
60.821
60.145
59.213
58.027
56.645
55.144
53.627
52.23
51.05
50.188
49.772
49.903
50.684
52.191
54.408
57.378
61.243
66.013
71.592
77.69
83.737
89.309
94.176
97.85
99.742
99.577
97.239
93.327
89.053
84.942
81.373
79.325
79.585
82.427
86.371
87.216
80.919
66.162
46.623
27.843
11.314
-6.116
-36.298
-91.928
-176.936
-290.258
-419.678
-545.616
-652.374
-722.885
-742.897
-709.354
-621.854
-486.746
-323.762
-151.411
8.017
130.107
208.203
243.482
246.709
239.974
233.635
229.877
226.41
213.609
189.384
158.624
126.306
98.459
77.526
62.326
51.874
45.681
43.152
43.181
44.354
45.151
44.857
43.638
41.647
38.618
34.19
28.486
22.121
16.104
11.077
7.067
3.982
1.797
0.652
0.621
1.417
2.428
3.156
3.381
3.038
2.18
0.78
-1.263
-3.945
-7.162
-10.804
-14.781
-19.061
-23.675
-28.621
-33.859
-39.326
-44.937
-50.637
-56.406
-62.227
-68.093
-73.998
-79.933
-85.901
-91.925
-98.017
-104.184
-110.424
-116.724
-123.074
-129.471
-135.915
-142.406
-148.937
-155.496
-162.064
-168.624
-175.152
-181.626
-188.017
-194.291
-200.418
-206.37
-212.118
-217.638
-222.901
-227.879
-232.546
-236.875
-240.839
-244.413
-247.571
-250.288
-252.542
-254.312
-255.58
-256.328
-256.541
-256.209
-255.32
-253.868
-251.847
-249.257
-246.096
-242.37
-238.085
-233.25
-227.878
-221.985
-215.588
-208.71
-201.374
-193.605
-185.434
-176.889
-168.002
-158.806
-149.336
-139.627
-129.715
-119.637
-109.43
-99.13
-88.777
-78.407
-68.058
-57.765
-47.563
-37.487
-27.57
-17.842
-8.334
0.928
9.917
18.611
26.987
35.027
42.714
50.034
56.977
63.533
69.697
75.466
80.838
85.816
90.404
94.607
98.433
101.891
104.993
107.751
110.178
112.289
114.1
115.627
116.886
117.897
118.676
119.241
119.611
119.803
119.836
119.726
119.49
119.146
118.708
118.192
117.613
116.984
116.317
115.624
114.915
114.2
113.486
112.78
112.087
111.413
110.76
110.13
109.527
108.951
108.402
107.881
107.387
106.92
106.478
106.061
105.667
105.296
104.944
104.612
104.298
104.001
103.722
103.459
103.211
102.98
102.766
102.569
102.389
102.228
102.087
101.967
101.871
101.8
101.758
101.745
101.766
101.822
101.919
102.058
102.242
102.475
102.759
103.096
103.488
103.936
104.441
105.003
105.621
106.294
107.021
107.801
108.63
109.503
110.418
111.37
112.353
113.361
