ecg_data_columns
-57.369
-159.94
-188.901
-168.265
-131.053
-105.114
-100.609
-108.797
-115.595
-113.586
-103.022
-89.752
-81.158
-79.783
-84.471
-93.236
-103.206
-112.16
-119.151
-123.481
-124.782
-123.301
-119.405
-113.525
-106.399
-98.801
-91.201
-83.854
-76.825
-69.966
-63.16
-56.377
-49.543
-42.56
-35.376
-27.945
-20.232
-12.277
-4.115
4.261
12.866
21.713
30.801
40.089
49.509
59.004
68.523
78.02
87.454
96.766
105.895
114.772
123.322
131.49
139.231
146.495
153.238
159.421
165.011
169.995
174.375
178.148
181.308
183.853
185.781
187.097
187.815
187.948
187.514
186.529
185.012
182.983
180.463
177.476
174.041
170.18
165.912
161.261
156.253
150.915
145.277
139.369
133.221
126.863
120.327
113.644
106.841
99.948
92.994
86.004
79.007
72.03
65.097
58.236
51.468
44.819
38.308
31.956
25.78
19.796
14.02
8.465
3.141
-1.941
-6.774
-11.349
-15.663
-19.712
-23.495
-27.011
-30.263
-33.254
-35.989
-38.474
-40.718
-42.727
-44.512
-46.082
-47.449
-48.622
-49.613
-50.436
-51.101
-51.623
-52.014
-52.29
-52.463
-52.549
-52.561
-52.514
-52.42
-52.293
-52.147
-51.991
-51.839
-51.7
-51.584
-51.501
-51.457
-51.461
-51.517
-51.631
-51.806
-52.044
-52.347
-52.716
-53.149
-53.645
-54.203
-54.821
-55.495
-56.222
-56.999
-57.82
-58.681
-59.576
-60.498
-61.44
-62.394
-63.352
-64.304
-65.243
-66.159
-67.044
-67.888
-68.684
-69.423
-70.096
-70.697
-71.218
-71.651
-71.99
-72.229
-72.364
-72.391
-72.306
-72.107
-71.795
-71.368
-70.826
-70.172
-69.404
-68.526
-67.538
-66.443
-65.243
-63.942
-62.542
-61.05
-59.472
-57.815
-56.087
-54.298
-52.454
-50.567
-48.645
-46.698
-44.736
-42.769
-40.806
-38.859
-36.937
-35.054
-33.221
-31.453
-29.761
-28.157
-26.651
-25.251
-23.966
-22.8
-21.755
-20.831
-20.027
-19.344
-18.783
-18.354
-18.06
-17.904
-17.888
-18.011
-18.27
-18.666
-19.191
-19.827
-20.561
-21.381
-22.287
-23.296
-24.416
-25.642
-26.966
-28.365
-29.816
-31.299
-32.775
-34.187
-35.477
-36.586
-37.477
-38.158
-38.633
-38.898
-38.937
-38.703
-38.162
-37.33
-36.224
-34.872
-33.3
-31.527
-29.612
-27.665
-25.819
-24.238
-23.046
-22.306
-22.073
-22.34
-23.138
-24.622
-26.784
-29.41
-32.161
-34.427
-35.682
-35.855
-34.862
-32.466
-28.766
-24.034
-18.976
-15.3
-14.57
-17.138
-22.72
-30.505
-38.977
-46.651
-51.536
-50.053
-38.493
-15
20.577
66.873
121.096
180.29
241.211
298.706
346.617
380.492
397.753
397.294
379.934
347.051
299.927
241.871
178.062
112.751
49.488
-8.453
-59.484
-102.416
-135.496
-158.676
-173.596
-181.526
-184.184
-183.811
-181.434
-178.051
-175.269
-173.596
-172.74
-172.587
-172.371
-170.986
-168.183
-163.747
-157.268
-148.946
-139.169
-128.298
-117.072
-106.272
-96.245
-87.247
-79.467
-72.865
-67.428
-63.107
-59.69
-56.957
-54.751
-52.931
-51.394
-50.035
-48.675
-47.139
-45.301
-43.066
-40.392
-37.25
-33.61
-29.471
-24.861
-19.833
-14.449
-8.758
-2.8
3.382
9.736
16.196
22.683
29.138
35.519
41.794
47.943
53.95
59.803
65.503
71.062
76.492
81.798
86.981
92.033
96.952
101.74
106.397
110.923
115.313
119.559
123.652
127.582
131.338
134.906
138.269
141.41
144.313
146.966
149.358
151.478
153.318
154.866
156.116
157.062
157.697
158.014
158.009
157.676
157.013
156.018
154.692
153.035
151.051
148.743
146.119
143.185
139.951
136.426
132.623
128.555
124.237
119.686
114.919
109.955
104.815
99.518
94.087
88.544
82.91
77.21
71.464
65.698
59.933
54.192
48.497
42.871
37.334
31.908
26.613
21.468
16.491
11.7
7.112
2.74
-1.4
-5.296
-8.938
-12.315
-15.419
-18.243
-20.782
-23.032
-24.99
-26.658
-28.034
-29.123
-29.928
-30.454
-30.709
-30.699
-30.435
-29.926
-29.183
-28.22
-27.048
-25.682
-24.137
-22.427
-20.568
-18.576
-16.466
-14.255
-11.958
-9.592
-7.171
-4.713
-2.232
0.256
2.735
5.19
7.608
9.974
12.275
14.499
16.635
18.672
20.6
22.413
24.1
25.656
27.076
28.353
29.485
30.468
31.302
31.985
32.52
32.909
33.154
33.26
33.232
33.075
32.794
32.397
31.89
31.28
30.576
29.786
28.919
27.986
26.998
25.964
24.897
23.807
22.705
21.602
20.507
19.431
18.383
17.371
16.404
15.492
14.641
13.859
13.154
12.531
11.995
11.552
11.203
10.949
10.791
10.729
10.761
10.886
11.101
11.403
11.791
12.259
12.804
13.421
14.103
14.842
15.628
16.45
17.294
18.149
19.003
19.843
20.658
21.44
22.18
22.873
23.514
24.096
24.612
25.056
25.42
25.694
25.875
25.958
25.941
25.825
25.612
25.302
24.905
24.424
23.858
23.202
22.44
21.557
20.558
19.448
18.235
16.936
15.562
14.136
12.704
11.311
9.999
8.813
7.763
6.854
6.113
5.576
5.293
5.306
5.597
6.138
6.928
7.969
9.289
10.865
12.572
14.266
15.802
17.036
17.926
18.391
18.258
17.487
16.139
14.421
12.847
11.854
11.653
12.552
14.751
18.055
22.158
26.345
29.353
30.295
28.487
23.112
14.121
2.407
-10.556
-22.382
-30.215
-31.75
-24.583
-6.078
25.106
68.799
123.381
185.762
252.41
319.665
383.006
437.164
477.561
501.014
505.978
492.22
460.024
410.919
348.072
276.081
200.258
125.355
55.337
-6.026
-55.346
-90.801
-112.117
-120.477
-118.423
-108.463
-93.095
-75.499
-58.564
-44.079
-33.039
-25.487
-20.605
-17.716
-16.013
-14.119
-11.042
-6.369
0.039
7.779
16.223
24.955
33.465
41.1
47.491
52.461
55.97
58.25
59.532
59.985
59.857
59.383
58.754
58.179
57.796
57.682
57.921
58.565
59.649
61.217
63.276
65.807
68.789
72.173
75.911
79.963
84.269
88.771
93.405
98.093
102.779
107.43
112.015
116.518
120.929
125.234
129.432
133.536
137.552
141.488
145.347
149.123
152.818
156.437
159.985
163.466
166.882
170.226
173.493
176.676
179.766
182.753
185.625
188.363
190.954
193.387
195.652
197.74
199.64
201.343
202.837
204.114
205.165
205.979
206.545
206.853
206.892
206.655
206.132
205.318
204.207
202.793
201.073
199.046
196.712
194.07
191.124
187.875
184.329
180.492
176.372
171.977
167.316
162.401
157.244
151.859
146.26
140.463
134.482
128.336
122.043
115.619
109.086
102.461
95.766
89.022
82.249
75.471
68.71
61.989
55.329
48.753
42.283
35.94
29.743
23.711
17.862
12.212
6.778
1.572
-3.393
-8.104
-12.552
-16.73
-20.629
-24.245
-27.573
-30.612
-33.361
-35.821
-37.993
-39.881
-41.489
-42.824
-43.892
-44.702
-45.262
-45.585
-45.683
-45.569
-45.257
-44.765
-44.107
-43.303
-42.37
-41.325
-40.187
-38.975
-37.707
-36.401
-35.074
-33.746
-32.432
-31.149
-29.914
-28.74
-27.643
-26.635
-25.727
-24.932
-24.258
-23.715
-23.311
-23.052
-22.943
-22.989
-23.193
-23.557
-24.081
-24.764
-25.602
-26.593
-27.729
-29.004
-30.41
-31.937
-33.574
-35.311
-37.135
-39.032
-40.99
-42.993
-45.027
-47.076
-49.125
-51.158
-53.16
-55.116
-57.011
-58.831
-60.562
-62.189
-63.702
-65.086
-66.333
-67.43
-68.37
-69.145
-69.751
-70.182
-70.436
-70.513
-70.411
-70.136
-69.689
-69.078
-68.308
-67.388
-66.329
-65.141
-63.837
-62.432
-60.941
-59.379
-57.766
-56.12
-54.46
-52.804
-51.172
-49.584
-48.059
-46.617
-45.277
-44.056
-42.973
-42.045
-41.29
-40.722
-40.351
-40.181
-40.215
-40.458
-40.912
-41.575
-42.445
-43.514
-44.777
-46.237
-47.894
-49.746
-51.785
-53.993
-56.35
-58.842
-61.459
-64.187
-67.005
-69.879
-72.779
-75.682
-78.563
-81.397
-84.141
-86.726
-89.089
-91.179
-92.948
-94.372
-95.433
-96.105
-96.37
-96.212
-95.613
-94.599
-93.222
-91.543
-89.621
-87.469
-85.081
-82.532
-79.983
-77.51
-75.004
-72.128
-68.483
-63.889
-58.48
-52.46
-45.702
-38.081
-29.94
-22.174
-16.027
-12.349
-10.835
-10.535
-11.037
-11.946
-12.217
-9.974
-2.324
13.137
36.576
66.837
102.956
143.586
186.759
229.239
265.784
291.659
304.724
304.242
290.049
262.77
223.31
174.36
121.222
68.679
19.655
-23.717
-60.23
-89.149
-109.391
-121.599
-128.581
-132.484
-134.536
-135.673
-136.027
-135.858
-136.119
-136.609
-135.977
-133.539
-129.016
-122.39
-114.264
-104.939
-94.218
-82.503
-70.667
-59.226
-48.551
-38.822
-29.834
-21.564
-14.349
-8.35
-3.398
0.44
2.834
3.911
3.952
2.849
1.45
-0.402
-5.798
-14.341
-22.651
-26.377
-14.743
16.004
55.308
90.247
101.818
77.965
32.148
-15.245
-43.46
-35.525
-0.029
43.09
79.267
95.621
93.853
86.096
78.48
75.385
77.628
80.895
83.811
86.725
89.396
92.458
96.117
99.805
103.336
106.771
110.012
113.004
115.813
118.481
121.055
123.632
126.238
128.823
131.371
133.887
136.354
138.772
141.139
143.434
145.63
147.738
149.785
151.788
153.77
155.723
157.589
159.352
161.06
162.665
164.049
165.116
165.763
165.968
165.871
165.507
164.717
163.648
162.855
162.454
162.274
162.384
162.188
162.769
167.595
175.966
184.678
188.527
177.648
152.522
123.094
99.23
94.945
111.313
135.065
155.938
162.903
153.905
138.877
123.969
113.33
108.293
104.836
101.112
97.284
93.227
89.565
86.479
83.444
80.311
77.195
74.104
71.032
68.022
65.118
62.394
59.962
57.871
56.091
54.624
53.49
52.7
52.272
52.212
52.517
53.187
54.235
55.671
57.496
59.713
62.319
65.308
68.678
72.431
76.565
81.079
85.962
91.193
96.748
102.611
108.759
115.176
121.839
128.72
135.8
143.065
150.504
158.109
165.862
173.735
181.691
189.686
197.709
205.778
213.921
222.174
230.523
238.898
247.256
255.564
263.775
271.874
279.737
287.107
293.952
300.435
306.708
313.001
319.231
324.847
329.585
333.541
336.433
337.771
337.006
333.257
326.563
318.119
308.695
298.62
288.576
279.208
271.386
266.602
265.092
265.676
267.656
270.604
273.942
277.398
280.311
281.364
280.236
277.561
273.513
268.109
261.238
252.412
241.522
228.793
213.857
196
174.832
150.19
122.218
91.171
56.834
18.89
-22.538
-67.25
-115.123
-166.333
-221.379
-280.161
-341.493
-403.716
-465.386
-525.082
-581.452
-632.752
-676.521
-711.195
-737.118
-755.333
-766.682
-772.352
-771.185
-762.468
-749.955
-735.316
-722.824
-716.889
-711.393
-702.698
-685.623
-652.945
-611.716
-567.953
-526.234
-494.05
-467.563
-442.583
-418.406
-392.281
-366.025
-341.946
-319.7
-299.625
-281.55
-264.885
-249.732
-236.05
-223.338
-211.259
-199.315
-186.524
-172.549
-157.64
-141.564
-124.523
-105.733
-82.468
-55.574
-28.242
-5.439
3.805
-1.397
-14.697
-25.36
-14.891
23.891
86.545
160.46
221.335
255.838
263.191
249.31
229.751
212.35
196.219
182.71
173.847
177.926
206.727
263.133
339.999
420.108
485.016
522.905
530.334
515.971
487.93
450.588
406.989
352.879
286.819
212.343
132.922
55.051
-15.458
-75.599
-123.235
-157.788
-180.2
-192.194
-195.726
-192.668
-185.321
-176.163
-167.123
-159.659
-154.524
-151.934
-152.04
-155.509
-161.377
-166.477
-170.553
-174.86
-183.706
-205.817
-241.217
-283.158
-320.835
-337.405
-327.842
-297.003
-255.986
-224.908
-214.751
-228.916
-262.852
-300.643
-331.439
-348.346
-350.718
-347.278
-343.744
-343.436
-347.376
-352.277
-356.601
-360.507
-364.014
-367.8
-372.007
-376.056
-379.721
-383.023
-385.977
-388.684
-391.227
-393.646
-396.002
-398.391
-400.856
-403.381
-405.953
-408.551
-411.155
-413.762
-416.37
-418.978
-421.587
-424.199
-426.804
-429.391
-431.951
-434.475
-436.959
-439.399
-441.794
-444.141
-446.443
-448.706
-450.932
-453.126
-455.288
-457.419
-459.518
-461.588
-463.629
-465.641
-467.626
-469.583
-471.512
-473.414
-475.286
-477.127
-478.934
-480.702
-482.427
-484.101
-485.716
-487.262
-488.73
-490.108
-491.385
-492.545
-493.576
-494.462
-495.189
-495.741
-496.102
-496.255
-496.183
-495.867
-495.29
-494.435
-493.283
-491.815
-490.012
-487.857
-485.333
-482.423
-479.113
-475.388
-471.234
-466.638
-461.592
-456.087
-450.116
-443.673
-436.751
-429.349
-421.464
-413.104
-404.275
-394.988
-385.253
-375.08
-364.484
-353.482
-342.09
-330.324
-318.198
-305.723
-292.918
-279.806
-266.415
-252.778
-238.919
-224.857
-210.605
-196.181
-181.604
-166.897
-152.079
-137.167
-122.181
-107.15
-92.114
-77.117
-62.193
-47.369
-32.65
-18.034
-3.538
10.795
24.892
38.672
52.089
65.144
77.858
90.232
102.241
113.828
125.012
135.927
146.602
156.872
166.355
174.633
181.594
187.56
192.952
197.901
202.581
207.464
213.504
221.87
233.044
246.409
260.787
275.413
289.749
303.099
314.26
321.606
324.306
322.992
319.233
314.256
308.803
303.476
299.111
297.017
298.019
301.797
307.199
313.227
319.348
325.327
330.988
335.832
339.445
341.912
343.719
345.332
346.994
348.727
350.425
352.104
353.853
355.681
357.529
359.315
360.991
362.58
364.155
365.773
367.45
369.185
370.956
372.754
374.582
376.437
378.314
380.206
382.1
383.984
385.851
387.692
389.497
391.252
392.943
394.56
396.102
397.567
398.955
400.264
401.485
402.618
403.67
404.647
405.56
406.422
407.239
408.017
408.761
409.457
410.093
410.651
411.099
411.416
411.59
411.623
411.549
411.404
411.208
410.962
410.632
410.19
409.658
409.083
408.538
408.073
407.666
407.348
407.27
407.495
407.976
408.422
408.216
406.98
404.75
401.648
397.81
393.443
388.792
384.752
382.992
384.611
389.819
398.128
408.457
419.935
431.789
442.185
448.206
447.318
438.037
420.571
396.47
366.823
332.716
296.492
261.754
232.903
214.028
207.075
212.396
231.115
264.564
313.043
375.702
447.356
519.681
587.773
649.402
707.788
770.148
834.688
891.255
922.158
904.749
829.854
704.251
544.572
379.27
233.338
118.944
44.171
4.262
-14.557
-20.007
-20.519
-19.532
-11.911
2.81
22.663
45.128
64.615
78.294
86.547
90.515
92.207
93.681
96.709
102.294
110.731
121.846
134.863
148.954
163.476
177.566
190.281
201.067
209.61
215.832
219.952
222.083
222.292
220.8
217.882
213.855
209.113
203.975
198.632
193.251
187.958
182.843
178.01
173.508
169.353
165.548
162.119
159.141
156.683
154.752
153.3
152.206
151.293
150.416
149.475
148.38
147.079
145.54
143.741
141.708
139.503
137.174
134.731
132.142
129.361
126.362
123.148
119.749
116.197
112.524
108.768
104.985
101.252
97.634
94.166
90.845
87.631
84.494
81.447
78.517
75.737
73.164
70.837
68.802
67.147
65.919
65.111
64.672
64.482
64.396
64.319
64.183
63.941
63.559
62.97
62.099
60.892
59.261
57.118
54.353
50.797
46.325
40.898
34.526
27.307
19.389
10.867
1.819
-7.676
-17.57
-27.795
-38.281
-48.995
-59.884
-70.878
-81.878
-92.737
-103.323
-113.58
-123.485
-133.073
-142.424
-151.576
-160.556
-169.403
-178.127
-186.733
-195.223
-203.563
-211.716
-219.669
-227.424
-235.011
-242.459
-249.763
-256.9
-263.832
-270.498
-276.856
-282.869
-288.491
-293.691
-298.451
-302.757
-306.619
-310.054
-313.07
-315.668
-317.849
-319.607
-320.947
-321.88
-322.419
-322.58
-322.381
-321.841
-320.984
-319.834
-318.411
-316.734
-314.818
-312.677
-310.327
-307.787
-305.076
-302.214
-299.223
-296.125
-292.943
-289.702
-286.424
-283.131
-279.842
-276.576
-273.351
-270.183
-267.089
-264.082
-261.177
-258.386
-255.72
-253.191
-250.807
-248.578
-246.509
-244.605
-242.871
-241.308
-239.918
-238.699
-237.65
-236.766
-236.045
-235.482
-235.068
-234.797
-234.658
-234.64
-234.731
-234.917
-235.183
-235.513
-235.89
-236.297
-236.719
-237.143
-237.552
-237.933
-238.271
-238.555
-238.771
-238.909
-238.957
-238.903
-238.738
-238.453
-238.041
-237.5
-236.825
-236.017
-235.078
-234.012
-232.824
-231.519
-230.103
-228.58
-226.956
-225.237
-223.428
-221.536
-219.57
-217.541
-215.461
-213.347
-211.211
-209.063
-206.913
-204.769
-202.641
-200.539
-198.465
-196.424
-194.426
-192.487
-190.64
-188.908
-187.297
-185.813
-184.454
-183.213
-182.086
-181.058
-180.082
-179.113
-178.101
-176.997
-175.792
-174.472
-173.005
-171.345
-169.419
-167.185
-164.665
-161.883
-158.836
-155.52
-151.902
-148.017
-144.017
-140.055
-136.305
-132.936
-129.994
-127.596
-125.955
-125.109
-124.993
-125.359
-125.602
-125.233
-124.003
-121.484
-117.363
-111.831
-105.221
-98.38
-92.811
-89.519
-89.307
-93.319
-101.862
-113.987
-128.052
-141.254
-149.895
-151.093
-141.855
-118.397
-78.632
-22.515
48.476
130.583
218.651
307.704
391.369
461.366
511.018
537.052
539.359
519.914
479.953
415.219
320.302
197.822
59.916
-69.476
-164.117
-210.795
-213.606
-191.908
-166.661
-150.514
-144.329
-139.665
-131.523
-119.573
-106.216
-96.652
-92.418
-91.705
-93.066
-94.447
-93.967
-91.266
-86.166
-78.632
-69.464
-59.47
-49.187
-39.283
-30.389
-22.788
-16.652
-12.02
-8.658
-6.337
-4.879
-4.048
-3.615
-3.395
-3.196
-2.827
-2.158
-1.084
0.487
2.603
5.296
8.592
12.493
16.97
21.988
27.504
33.469
39.842
46.574
53.601
60.85
68.24
75.709
83.215
90.726
98.222
105.688
113.109
120.486
127.83
135.149
142.442
149.706
156.931
164.11
171.241
178.323
185.351
192.315
199.2
205.991
212.672
219.222
225.621
231.842
237.858
243.643
249.177
254.438
259.406
264.061
268.382
272.35
275.949
279.161
281.969
284.357
286.308
287.809
288.848
289.416
289.504
289.105
288.214
286.83
284.952
282.584
279.729
276.395
272.592
268.333
263.633
258.509
252.981
247.07
240.798
234.192
227.277
220.082
212.634
204.964
197.101
189.078
180.924
172.673
164.354
155.998
147.637
139.301
131.02
122.822
114.737
106.789
99.007
91.413
84.031
76.882
69.985
63.357
57.011
50.962
45.218
39.787
34.675
29.884
25.414
21.266
17.435
13.915
10.7
7.781
5.146
2.785
0.685
-1.17
-2.794
-4.203
-5.414
-6.442
-7.306
-8.022
-8.609
-9.083
-9.464
-9.768
-10.013
-10.216
-10.396
-10.567
-10.747
-10.949
-11.188
-11.476
-11.827
-12.249
-12.753
-13.347
-14.037
-14.828
-15.727
-16.735
-17.855
-19.087
-20.431
-21.885
-23.448
-25.114
-26.88
-28.739
-30.684
-32.708
-34.802
-36.958
-39.165
-41.414
-43.693
-45.991
-48.296
-50.595
-52.875
-55.121
-57.32
-59.459
-61.522
-63.498
-65.371
-67.129
-68.76
-70.253
-71.597
-72.783
-73.801
-74.642
-75.299
-75.768
-76.043
-76.121
-76
-75.678
-75.159
-74.45
-73.56
-72.496
-71.269
-69.891
-68.374
-66.735
-64.985
-63.136
-61.2
-59.193
-57.134
-55.044
-52.945
-50.86
-48.812
-46.826
-44.926
-43.136
-41.474
-39.955
-38.597
-37.421
-36.453
-35.726
-35.272
-35.111
-35.265
-35.747
-36.557
-37.687
-39.114
-40.796
-42.701
-44.802
-47.068
-49.481
-52.005
-54.596
-57.229
-59.866
-62.469
-65.019
-67.483
-69.853
-72.189
-74.561
-77.048
-79.754
-82.73
-86.032
-89.777
-94.069
-99.038
-104.815
-111.412
-118.871
-127.302
-136.664
-146.815
-157.415
-167.791
-177.278
-185.44
-191.896
-196.378
-198.993
-199.986
-199.978
-200.16
-201.655
-205.317
-211.457
-219.648
-228.622
-236.658
-241.689
-240.989
-231.701
-211.059
-177.359
-130.496
-71.963
-4.322
69.514
145.525
218.618
283.068
333.715
367.031
381.277
375.689
349.646
304.228
242.635
169.597
90.642
10.7
-66.297
-136.265
-194.533
-238.064
-265.935
-278.845
-279.017
-268.89
-250.596
-227.222
-202.868
-180.542
-161.964
-147.865
-137.771
-131.048
-127.284
-125.345
-123.457
-120.5
-115.93
-109.66
-102.235
-94.13
-85.626
-77.255
-69.694
-63.326
-58.305
-54.575
-51.826
-49.808
-48.331
-47.142
-45.986
-44.644
-42.955
-40.832
-38.247
-35.179
-31.599
-27.496
-22.868
-17.741
-12.15
-6.142
0.23
6.919
13.859
20.983
28.221
35.495
42.746
49.933
57.021
63.988
70.815
77.485
83.988
90.323
96.489
102.481
108.295
113.92
119.348
124.577
129.601
134.42
139.028
143.414
147.565
151.471
155.117
158.489
161.571
164.343
166.788
168.892
170.64
172.021
173.022
173.63
173.832
173.618
172.977
171.897
170.368
168.381
165.926
162.997
159.59
155.701
151.328
146.472
141.133
135.316
129.028
122.275
115.067
107.417
99.336
90.841
81.95
72.683
63.061
53.107
42.847
32.308
21.519
10.51
-0.686
-12.036
-23.505
-35.057
-46.656
-58.262
-69.84
-81.349
-92.752
-104.011
-115.088
-125.946
-136.55
-146.865
-156.857
-166.497
-175.754
-184.601
-193.015
-200.973
-208.456
-215.448
-221.935
-227.907
-233.357
-238.28
-242.675
-246.546
-249.896
-252.735
-255.076
-256.934
-258.328
-259.279
-259.812
-259.956
-259.741
-259.196
-258.357
-257.258
-255.934
-254.422
-252.759
-250.983
-249.131
-247.243
-245.355
-243.505
-241.728
-240.061
-238.534
-237.18
-236.026
-235.1
-234.423
-234.017
-233.9
-234.086
-234.588
-235.413
-236.566
-238.046
-239.851
-241.972
-244.398
-247.113
-250.095
-253.32
-256.761
-260.391
-264.178
-268.091
-272.097
-276.162
-280.253
-284.335
-288.371
-292.321
-296.144
-299.793
-303.223
-306.39
-309.246
-311.752
-313.866
-315.552
-316.78
-317.525
-317.76
-317.459
-316.596
-315.141
-313.074
-310.386
-307.076
-303.156
-298.652
-293.602
-288.052
-282.053
-275.646
-268.865
-261.733
-254.251
-246.417
-238.226
-229.692
-220.855
-211.76
-202.435
-192.885
-183.134
-173.204
-163.096
-152.805
-142.281
-131.462
-120.356
-109.06
-97.616
-86.014
-74.287
-62.423
-50.468
-38.604
-26.897
-15.232
-3.845
6.609
15.949
24.216
31.202
37.478
41.707
40.354
34.491
27.319
24.514
36.238
61.169
89.331
110.537
110.371
88.922
59.668
32.983
20.417
23.336
31.774
39.898
43.423
41.399
37.977
34.841
31.957
29.529
26.997
24.433
22.679
22.28
23.696
27.488
34.006
43.385
55.691
70.585
87.394
105.19
122.572
138.023
150.307
158.826
163.703
165.988
167.31
169.634
175.719
188.712
211.671
246.519
293.452
350.949
416.462
487.167
559.179
627.513
686.513
731.062
757.819
765.351
753.311
721.693
672.019
607.538
532.973
454.025
375.708
302.095
237.164
184.54
146.24
122.808
113.283
115.069
125.545
142.034
161.03
179.464
195.425
207.717
216.131
221.489
224.588
226.423
228.577
231.899
236.507
242.488
249.667
257.738
266.418
275.263
283.801
292.528
302.529
314.315
327.738
341.866
355.663
368.629
380.409
389.704
394.598
393.954
387.706
377.486
365.619
353.444
341.718
331.806
325.506
324.314
329.158
338.948
351.372
365.092
379.396
393.501
406.637
417.761
425.701
430.723
434.137
436.715
438.931
440.992
442.79
444.604
447.029
450.094
453.389
456.629
459.556
462.138
464.599
466.987
469.203
471.223
473.06
474.748
476.36
477.902
479.303
480.512
481.485
482.197
482.652
482.845
482.757
482.368
481.653
480.595
479.185
477.421
475.296
472.801
469.922
466.648
462.974
458.894
454.406
449.501
444.167
438.395
432.175
425.505
418.385
410.813
402.79
394.318
385.401
376.048
366.268
356.074
345.479
334.498
323.149
311.451
299.425
287.096
274.487
261.624
248.534
235.246
221.789
208.196
194.498
180.731
166.928
153.125
139.357
125.658
112.064
98.609
85.327
72.252
59.414
46.846
34.577
22.634
11.043
-0.173
-10.994
-21.401
-31.38
-40.919
-50.009
-58.641
-66.813
-74.522
-81.769
-88.557
-94.892
-100.782
-106.239
-111.276
-115.91
-120.16
-124.047
-127.595
-130.827
-133.769
-136.449
-138.894
-141.131
-143.189
-145.097
-146.884
-148.578
-150.206
-151.795
-153.372
-154.96
-156.582
-158.258
-160.005
-161.839
-163.773
-165.82
-167.989
-170.288
-172.722
-175.296
-178.011
-180.868
-183.863
-186.993
-190.248
-193.62
-197.095
-200.661
-204.301
-207.997
-211.733
-215.488
-219.245
-222.983
-226.682
-230.322
-233.883
-237.344
-240.688
-243.896
-246.951
-249.839
-252.544
-255.058
-257.373
-259.481
-261.379
-263.064
-264.535
-265.793
-266.84
-267.679
-268.316
-268.755
-269.004
-269.075
-268.98
-268.734
-268.356
-267.866
-267.287
-266.641
-265.953
-265.245
-264.539
-263.857
-263.215
-262.633
-262.127
-261.716
-261.417
-261.247
-261.222
-261.357
-261.66
-262.14
-262.8
-263.639
-264.659
-265.851
-267.21
-268.736
-270.436
-272.326
-274.418
-276.71
-279.195
-281.862
-284.691
-287.659
-290.733
-293.854
-296.963
-300.002
-302.919
-305.682
-308.262
-310.614
-312.681
-314.384
-315.67
-316.541
-317.003
-317.066
-316.739
-316.011
-314.937
-313.674
-312.386
-311.236
-310.391
-309.923
-309.952
-310.709
-312.278
-314.639
-317.596
-320.594
-323.11
-324.856
-325.401
-324.281
-321.515
-317.275
-312.212
-307.895
-305.627
-306.282
-310.976
-320.297
-333.528
-349.307
-365.263
-377.47
-382.341
-376.699
-356.897
-320.432
-267.078
-198.011
-116.107
-26.648
64.549
151.298
226.131
282.296
315.33
322.105
301.113
253.858
183.651
95.239
-4.346
-107.445
-207.595
-298.498
-374.252
-431.572
-469.234
-487.545
-489.127
-477.785
-456.983
-430.867
-404.191
-380.007
-359.985
-344.959
-334.331
-326.924
-321.832
-317.603
-312.266
-304.829
-295.013
-282.892
-269.211
-254.723
-239.907
-225.467
-212.22
-200.573
-190.688
-182.531
-175.762
-170.114
-165.402
-161.338
-157.654
-154.116
-150.464
-146.527
-142.231
-137.496
-132.271
-126.527
-120.222
-113.352
-105.958
-98.083
-89.786
-81.121
-72.133
-62.886
-53.452
-43.91
-34.356
-24.855
-15.446
-6.159
2.992
11.999
20.851
29.556
38.137
46.61
54.99
63.281
71.483
79.599
87.64
95.614
103.529
111.387
119.181
126.905
134.55
142.104
149.551
156.871
164.04
171.036
177.841
184.438
190.809
196.936
202.801
208.385
213.672
218.641
223.273
227.547
231.443
234.943
238.029
240.685
242.896
244.652
245.941
246.755
247.086
246.933
246.293
245.168
243.561
241.474
238.915
235.894
232.425
228.522
224.201
219.479
214.379
208.927
203.151
197.08
190.742
184.165
177.377
170.411
163.298
156.069
148.754
141.377
133.969
126.569
119.214
111.947
104.792
97.754
90.848
84.092
77.497
71.075
64.829
58.746
52.837
47.134
41.664
36.463
31.54
26.875
22.455
18.264
14.302
10.604
7.18
4.017
1.123
-1.484
-3.778
-5.704
-7.275
-8.574
-9.667
-10.626
-11.491
-12.258
-12.939
-13.562
-14.157
-14.78
-15.46
-16.192
-17.014
-17.989
-19.183
-20.693
-22.526
-24.593
-26.826
-29.162
-31.561
-34.025
-36.53
-39.023
-41.469
-43.837
-46.107
-48.286
-50.335
-52.181
-53.753
-54.963
-55.787
-56.282
-56.48
-56.405
-56.074
-55.478
-54.631
-53.572
-52.312
-50.84
-49.148
-47.215
-45.049
-42.687
-40.16
-37.504
-34.73
-31.818
-28.76
-25.557
-22.21
-18.73
-15.118
-11.367
-7.487
-3.511
0.533
4.612
8.7
12.786
16.852
20.878
24.843
28.72
32.49
36.139
39.649
43
46.175
49.151
51.915
54.46
56.775
58.85
60.67
62.221
63.496
64.497
65.221
65.667
65.83
65.7
65.28
64.587
63.635
62.44
61.016
59.38
57.566
55.626
53.607
51.551
49.485
47.416
45.369
43.366
41.421
39.556
37.758
35.996
34.245
32.49
30.711
28.892
26.987
24.905
22.586
19.992
17.105
13.949
10.536
6.878
2.992
-1.113
-5.41
-9.854
-14.364
-18.904
-23.477
-27.982
-32.163
-35.562
-37.551
-37.542
-35.198
-30.357
-22.901
-13.183
-1.915
9.813
20.263
27.755
31.113
29.869
24.363
15.994
6.708
-1.192
-4.481
0.101
15.507
43.485
83.669
134.029
191.67
253.416
315.413
373.086
420.97
454.337
470.978
470.359
453.003
419.414
369.91
306.381
233.124
155.081
75.91
-1.528
-75.104
-141.978
-197.743
-239.307
-266.108
-279.033
-279.258
-267.975
-245.936
-214.911
-179.021
-142.271
-107.499
-76.369
-49.566
-27.616
-11.568
-1.998
2.313
3.273
2.884
2.485
2.418
2.887
4.519
8.047
13.454
20.046
26.676
32.526
37.49
41.667
45.071
47.531
48.998
49.761
50.39
51.351
52.803
54.744
57.1
59.871
63.104
66.757
70.71
74.831
79.033
83.273
87.544
91.823
96.049
100.178
104.177
108.033
111.754
115.348
118.825
122.202
125.501
128.737
131.923
135.068
138.173
141.246
144.294
147.318
150.324
153.315
156.294
159.261
162.214
165.141
168.029
170.863
173.626
176.303
178.881
181.342
183.674
185.861
187.888
189.742
191.407
192.868
194.107
195.106
195.85
196.322
196.51
196.4
195.982
195.245
194.182
192.788
191.06
188.994
186.591
183.85
180.776
177.373
173.648
169.608
165.265
160.629
155.715
150.539
145.116
139.467
133.609
127.564
121.354
115.002
108.529
101.961
95.322
88.635
81.925
75.219
68.54
61.914
55.363
48.912
42.581
36.391
30.363
24.513
18.857
13.411
8.188
3.199
-1.544
-6.034
-10.263
-14.227
-17.922
-21.346
-24.5
-27.385
-30.005
-32.365
-34.471
-36.332
-37.956
-39.354
-40.537
-41.517
-42.308
-42.922
-43.375
-43.682
-43.857
-43.916
-43.875
-43.747
-43.549
-43.296
-43
-42.677
-42.339
-41.999
-41.67
-41.362
-41.085
-40.851
-40.667
-40.541
-40.48
-40.491
-40.577
-40.744
-40.993
-41.325
-41.743
-42.246
-42.831
-43.496
-44.238
-45.051
-45.93
-46.868
-47.859
-48.896
-49.971
-51.075
-52.202
-53.344
-54.491
-55.635
-56.768
-57.882
-58.967
-60.015
-61.019
-61.969
-62.859
-63.682
-64.433
-65.105
-65.694
-66.195
-66.604
-66.919
-67.137
-67.256
-67.276
-67.197
-67.02
-66.749
-66.39
-65.952
-65.443
-64.872
-64.25
-63.586
-62.892
-62.175
-61.443
-60.701
-59.954
-59.21
-58.475
-57.759
-57.076
-56.437
-55.855
-55.338
-54.894
-54.53
-54.25
-54.057
-53.951
-53.935
-54.015
-54.21
-54.542
-55.023
-55.657
-56.439
-57.35
-58.365
-59.456
-60.58
-61.695
-62.761
-63.734
-64.588
-65.313
-65.905
-66.347
-66.599
-66.614
-66.373
-65.885
-65.186
-64.339
-63.403
-62.445
-61.571
-60.869
-60.433
-60.389
-60.835
-61.847
-63.492
-65.764
-68.707
-72.463
-76.996
-82.09
-87.37
-92.132
-95.742
-97.997
-98.678
-97.533
-94.737
-90.538
-85.589
-81.539
-79.882
-81.065
-85.006
-90.945
-97.381
-103.017
-105.943
-102.733
-89.978
-65.493
-28.49
20.01
77.817
142.574
210.75
277.075
335.547
380.439
407.614
414.878
401.144
366.463
312.747
243.626
164.36
81.29
-0.093
-74.996
-138.76
-188.325
-222.446
-241.124
-246.091
-240.418
-226.91
-208.753
-189.826
-172.694
-158.761
-148.836
-142.568
-139.022
-137.538
-136.998
-135.719
-132.836
-128.061
-121.356
-113.328
-104.588
-95.481
-86.57
-78.545
-71.754
-66.373
-62.413
-59.592
-57.695
-56.578
-56.002
-55.76
-55.666
-55.506
-55.15
-54.524
-53.551
-52.186
-50.404
-48.16
-45.45
-42.293
-38.711
-34.754
-30.47
-25.894
-21.079
-16.079
-10.956
-5.788
-0.632
4.479
9.515
14.464
19.315
24.054
28.684
33.217
37.662
42.029
46.322
50.537
54.675
58.743
62.746
66.69
70.578
74.403
78.159
81.84
85.436
88.936
92.325
95.584
98.697
101.652
104.436
107.037
109.443
111.64
113.616
115.361
116.861
118.105
119.081
119.777
120.182
120.288
120.089
119.576
118.747
117.596
116.121
114.323
112.202
109.761
107.001
103.93
100.553
96.881
92.923
88.691
84.2
79.464
74.5
69.323
63.954
58.41
52.712
46.879
40.932
34.894
28.786
22.63
16.449
10.265
4.1
-2.024
-8.086
-14.065
-19.943
-25.701
-31.322
-36.788
-42.084
-47.196
-52.112
-56.819
-61.307
-65.568
-69.595
-73.383
-76.928
-80.228
-83.284
-86.094
-88.663
-90.991
-93.085
-94.948
-96.587
-98.009
-99.222
-100.235
-101.058
-101.701
-102.175
-102.491
-102.66
-102.693
-102.601
-102.396
-102.087
-101.687
-101.205
-100.653
-100.041
-99.379
-98.677
-97.945
-97.191
-96.423
-95.647
-94.871
-94.098
-93.334
-92.582
-91.845
-91.126
-90.427
-89.75
-89.096
-88.466
-87.858
-87.273
-86.708
-86.162
-85.631
-85.111
-84.601
-84.095
-83.59
-83.083
-82.568
-82.044
-81.505
-80.947
-80.366
-79.756
-79.113
-78.431
-77.706
-76.933
-76.108
-75.229
-74.292
-73.297
-72.242
-71.128
-69.955
-68.723
-67.433
-66.087
-64.687
-63.236
-61.736
-60.193
-58.611
-56.998
-55.363
-53.717
-52.072
-50.437
-48.824
-47.247
-45.715
-44.237
-42.822
-41.476
-40.204
-39.017
-37.922
-36.931
-36.056
-35.308
-34.696
-34.229
-33.913
-33.752
-33.749
-33.903
-34.212
-34.676
-35.3
-36.104
-37.104
-38.304
-39.705
-41.292
-43.043
-44.936
-46.936
-48.995
-51.059
-53.074
-54.988
-56.765
-58.385
-59.829
-61.064
-62.03
-62.679
-62.986
-62.97
-62.677
-62.149
-61.429
-60.57
-59.662
-58.841
-58.257
-58.058
-58.374
-59.288
-60.829
-63.078
-66.181
-70.132
-74.784
-79.776
-84.523
-88.529
-91.472
-93.046
-92.919
-91.068
-87.723
-83.457
-79.37
-76.501
-75.615
-77.078
-80.697
-85.463
-89.873
-92.096
-89.531
-79.421
-59.132
-26.647
18.591
75.498
141.914
215.001
290.791
364.091
428.711
478.742
509.416
519.353
510.276
481.36
431.955
360.444
262.569
146.568
28.26
-76.561
-147.778
-181.812
-190.637
-184.534
-176.982
-172.696
-164.745
-151.052
-132.04
-109.856
-90.361
-76.196
-66.827
-61.359
-58.436
-56.587
-54.317
-50.671
-45.163
-37.776
-29.188
-20.009
-10.56
-1.39
6.809
13.657
18.949
22.705
25.28
26.941
27.857
28.283
28.453
28.574
28.877
29.509
30.519
31.962
33.875
36.271
39.183
42.611
46.514
50.846
55.55
60.568
65.855
71.354
77.002
82.729
88.455
94.123
99.696
105.148
110.461
115.624
120.62
125.447
130.119
134.642
139.023
143.262
147.355
151.301
155.103
158.767
162.297
165.692
168.946
172.054
175.01
177.806
180.433
182.879
185.129
187.171
188.996
190.596
191.964
193.093
193.974
194.602
194.972
195.079
194.916
194.479
193.761
192.76
191.473
189.898
188.036
185.887
183.452
180.735
177.739
174.47
170.934
167.136
163.083
158.784
154.248
149.486
144.507
139.325
133.95
128.399
122.683
116.82
110.823
104.709
98.493
92.191
85.819
79.394
72.932
66.449
59.961
53.483
47.033
40.625
34.275
27.996
21.801
15.704
9.716
3.849
-1.888
-7.485
-12.934
-18.225
-23.352
-28.308
-33.086
-37.683
-42.094
-46.317
-50.348
-54.188
-57.836
-61.294
-64.562
-67.643
-70.539
-73.254
-75.791
-78.156
-80.353
-82.388
-84.267
-85.996
-87.583
-89.035
-90.359
-91.563
-92.653
-93.638
-94.523
-95.318
-96.028
-96.662
-97.227
-97.731
-98.181
-98.585
-98.951
-99.284
-99.592
-99.88
-100.154
-100.42
-100.68
-100.94
-101.204
-101.474
-101.755
-102.048
-102.356
-102.681
-103.023
-103.382
-103.757
-104.146
-104.548
-104.958
-105.375
-105.793
-106.211
-106.623
-107.026
-107.415
-107.786
-108.133
-108.45
-108.732
-108.973
-109.166
-109.306
-109.387
-109.403
-109.351
-109.227
-109.028
-108.752
-108.395
-107.957
-107.434
-106.826
-106.133
-105.354
-104.49
-103.541
-102.514
-101.411
-100.243
-99.02
-97.751
-96.449
-95.124
-93.79
-92.458
-91.139
-89.841
-88.569
-87.333
-86.143
-85.01
-83.946
-82.961
-82.065
-81.27
-80.583
-80.009
-79.553
-79.216
-78.999
-78.904
-78.935
-79.106
-79.438
-79.951
-80.656
-81.554
-82.64
-83.899
-85.316
-86.86
-88.483
-90.139
-91.779
-93.352
-94.822
-96.154
-97.313
-98.257
-98.922
-99.243
-99.2
-98.811
-98.098
-97.112
-95.884
-94.447
-92.925
-91.475
-90.256
-89.447
-89.192
-89.571
-90.731
-92.878
-96.04
-100.139
-104.903
-109.766
-114.291
-118.158
-120.842
-121.88
-121.267
-119.291
-116.694
-114.717
-114.121
-115.497
-119.892
-127.749
-138.317
-149.897
-159.884
-165.343
-163.828
-152.563
-127.891
-86.993
-31.011
35.148
106.8
180.886
260.477
351.583
450.536
544.161
610.445
626.11
583.515
492.291
374.658
254.452
145.765
51.604
-32.705
-109.824
-177.309
-230.773
-265.425
-280.194
-278.232
-263.858
-241.5
-215.733
-190.5
-168.339
-150.708
-137.988
-129.541
-124.37
-121.475
-119.277
-115.967
-110.64
-103.078
-93.533
-82.711
-71.231
-59.532
-48.274
-38.233
-29.811
-23.137
-18.112
-14.383
-11.683
-9.831
-8.568
-7.625
-6.761
-5.729
-4.365
-2.609
-0.402
2.298
5.508
9.263
13.566
18.373
23.632
29.285
35.275
41.554
48.07
54.752
61.525
68.302
75.02
81.644
88.149
94.519
100.744
106.813
112.726
118.501
124.153
129.689
135.113
140.422
145.616
150.701
155.684
160.569
165.353
170.031
174.595
179.036
183.342
187.502
191.497
195.307
198.915
202.304
205.46
208.371
211.021
213.394
215.478
217.259
218.727
219.868
220.67
221.122
221.214
220.94
220.293
219.268
217.864
216.078
213.913
211.371
208.457
205.178
201.542
197.557
193.237
188.595
183.646
178.407
172.893
167.126
161.126
154.915
148.515
141.95
135.245
128.424
121.514
114.539
107.527
100.501
93.488
86.513
79.599
72.771
66.051
59.459
53.017
46.742
40.651
34.759
29.079
23.622
18.398
13.413
8.675
4.185
-0.052
-4.038
-7.772
-11.258
-14.499
-17.501
-20.27
-22.813
-25.14
-27.261
-29.187
-30.929
-32.499
-33.91
-35.177
-36.311
-37.325
-38.235
-39.051
-39.788
-40.456
-41.069
-41.637
-42.17
-42.678
-43.168
-43.65
-44.128
-44.608
-45.094
-45.589
-46.095
-46.614
-47.146
-47.691
-48.248
-48.816
-49.395
-49.982
-50.575
-51.17
-51.766
-52.358
-52.943
-53.518
-54.079
-54.622
-55.143
-55.639
-56.108
-56.546
-56.95
-57.319
-57.649
-57.939
-58.188
-58.395
-58.557
-58.675
-58.748
-58.778
-58.765
-58.713
-58.622
-58.495
-58.332
-58.138
-57.913
-57.66
-57.379
-57.071
-56.737
-56.378
-55.995
-55.589
-55.158
-54.702
-54.221
-53.717
-53.189
-52.636
-52.056
-51.449
-50.814
-50.152
-49.463
-48.746
-48.001
-47.229
-46.436
-45.625
-44.799
-43.961
-43.116
-42.266
-41.416
-40.57
-39.729
-38.894
-38.067
-37.253
-36.461
-35.699
-34.975
-34.297
-33.676
-33.121
-32.644
-32.249
-31.934
-31.702
-31.555
-31.51
-31.584
-31.79
-32.132
-32.615
-33.244
-34.017
-34.922
-35.93
-36.998
-38.087
-39.177
-40.256
-41.321
-42.357
-43.332
-44.208
-44.956
-45.569
-46.043
-46.366
-46.514
-46.5
-46.392
-46.292
-46.322
-46.556
-47.004
-47.691
-48.687
-50.076
-51.982
-54.517
-57.688
-61.544
-66.202
-71.621
-77.666
-83.995
-89.907
-94.779
-98.197
-99.659
-98.839
-95.907
-91.224
-85.647
-80.648
-77.276
-76.321
-78.741
-84.689
-93.208
-102.705
-110.63
-113.757
-109.473
-95.243
-68.262
-27.134
27.682
94.278
169.211
248.038
326.152
398.253
458.202
500.859
522.921
522.621
499.584
454.707
390.274
310.262
220.314
126.38
33.65
-53.178
-129.522
-191.473
-236.84
-265.302
-278.226
-278.008
-267.116
-248.292
-225.228
-201.801
-180.629
-163.089
-149.577
-139.718
-133.123
-129.296
-126.887
-124.19
-120.266
-114.804
-107.956
-100.265
-92.104
-83.712
-75.658
-68.645
-63.056
-59.006
-56.347
-54.721
-53.865
-53.58
-53.622
-53.714
-53.59
-53.042
-51.973
-50.367
-48.217
-45.518
-42.252
-38.41
-34.029
-29.168
-23.893
-18.271
-12.354
-6.205
0.106
6.497
12.882
19.194
25.399
31.471
37.397
43.17
48.78
54.227
59.525
64.692
69.736
74.665
79.48
84.184
88.788
93.303
97.739
102.098
106.381
110.583
114.702
118.731
122.664
126.486
130.182
133.739
137.146
140.392
143.464
146.351
149.038
151.512
153.763
155.775
157.536
159.029
160.242
161.161
161.775
162.075
162.049
161.686
160.979
159.921
158.507
156.734
154.598
152.097
149.233
146.01
142.434
138.515
134.258
129.672
124.768
119.556
114.057
108.295
102.291
96.067
89.65
83.064
76.338
69.506
62.589
55.613
48.602
41.575
34.568
27.609
20.734
13.982
7.361
0.881
-5.451
-11.64
-17.645
-23.428
-28.981
-34.283
-39.326
-44.138
-48.631
-52.709
-56.503
-60.095
-63.593
-67.166
-70.625
-73.707
-76.51
-79.096
-81.165
-82.573
-82.949
-81.812
-79.662
-77.072
-74.059
-70.781
-67.61
-64.69
-62.653
-62.232
-62.831
-63.831
-65.131
-66.417
-67.515
-68.446
-68.666
-67.601
-65.72
-63.458
-60.981
-58.63
-56.411
-54.231
-52.387
-51.149
-50.344
-49.835
-49.533
-49.268
-49.11
-49.149
-49.323
-49.595
-49.985
-50.492
-51.141
-51.967
-52.933
-54.004
-55.167
-56.396
-57.689
-59.049
-60.462
-61.917
-63.401
-64.902
-66.408
-67.909
-69.394
-70.852
-72.272
-73.644
-74.959
-76.21
-77.387
-78.486
-79.495
-80.401
-81.196
-81.869
-82.415
-82.829
-83.106
-83.244
-83.24
-83.094
-82.806
-82.376
-81.806
-81.098
-80.255
-79.28
-78.178
-76.957
-75.629
-74.207
-72.705
-71.135
-69.513
-67.855
-66.176
-64.49
-62.807
-61.136
-59.488
-57.876
-56.315
-54.818
-53.399
-52.07
-50.846
-49.739
-48.76
-47.915
-47.206
-46.632
-46.199
-45.915
-45.792
-45.851
-46.104
-46.559
-47.217
-48.075
-49.122
-50.34
-51.695
-53.141
-54.639
-56.148
-57.634
-59.065
-60.394
-61.586
-62.608
-63.407
-63.943
-64.194
-64.158
-63.857
-63.341
-62.639
-61.786
-60.869
-59.994
-59.294
-58.913
-58.975
-59.582
-60.853
-62.972
-65.996
-69.829
-74.205
-78.62
-82.588
-85.813
-87.912
-88.365
-87.094
-84.389
-80.961
-78.157
-76.985
-77.846
-81.37
-88.227
-98.094
-109.829
-121.217
-128.972
-130.487
-123.807
-106.544
-76.275
-31.713
26.871
97.234
175.685
258.472
341.368
419.147
485.702
535.011
562.794
566.609
545.178
498.791
429.726
341.943
241.6
136.309
32.746
-62.763
-143.857
-206.415
-248.593
-270.151
-273.333
-262.104
-240.209
-212.177
-183.412
-157.513
-136.546
-121.672
-112.435
-107.611
-106.184
-106.441
-106.027
-103.674
-98.911
-91.669
-82.647
-72.556
-61.849
-51.265
-41.697
-33.598
-27.147
-22.304
-18.705
-16.075
-14.239
-12.918
-11.847
-10.799
-9.531
-7.888
-5.82
-3.267
-0.192
3.421
7.602
12.345
17.597
23.302
29.392
35.805
42.491
49.386
56.418
63.504
70.546
77.476
84.247
90.823
97.182
103.304
109.171
114.781
120.151
125.293
130.217
134.93
139.429
143.719
147.811
151.719
155.454
159.023
162.429
165.673
168.758
171.682
174.445
177.039
179.454
181.684
183.726
185.576
187.233
188.693
189.951
191.005
191.852
192.49
192.915
193.121
193.104
192.859
192.386
191.679
190.738
189.558
188.138
186.476
184.571
182.422
180.028
177.389
174.505
171.379
168.014
164.414
160.584
156.532
152.264
147.79
143.12
138.267
133.241
128.057
122.73
117.274
111.707
106.046
100.309
94.514
88.679
82.825
76.969
71.132
65.331
59.587
53.916
48.338
42.869
37.528
32.331
27.294
22.432
17.76
13.291
9.037
5.01
1.217
-2.331
-5.63
-8.673
-11.457
-13.98
-16.242
-18.244
-19.989
-21.48
-22.723
-23.725
-24.495
-25.04
-25.372
-25.5
-25.437
-25.194
-24.782
-24.216
-23.506
-22.667
-21.71
-20.65
-19.5
-18.273
-16.982
-15.64
-14.26
-12.855
-11.436
-10.014
-8.6
-7.205
-5.837
-4.505
-3.217
-1.979
-0.799
0.32
1.373
2.357
3.269
4.108
4.873
5.564
6.182
6.727
7.2
7.604
7.939
8.209
8.415
8.561
8.65
8.685
8.672
8.615
8.518
8.387
8.226
8.04
7.835
7.615
7.386
7.152
6.919
6.69
6.472
6.269
6.083
5.92
5.783
5.675
5.599
5.558
5.551
5.582
5.652
5.761
5.912
6.106
6.341
6.618
6.939
7.302
7.705
8.146
8.616
9.11
9.622
10.145
10.671
11.193
11.703
12.196
12.672
13.128
13.558
13.958
14.32
14.635
14.897
15.097
15.226
15.278
15.248
15.135
14.943
14.669
14.31
13.856
13.288
12.589
11.749
10.758
9.616
8.339
6.947
5.475
3.974
2.484
1.041
-0.319
-1.572
-2.689
-3.642
-4.407
-4.949
-5.23
-5.227
-4.925
-4.344
-3.558
-2.654
-1.738
-0.94
-0.353
-0.091
-0.287
-1.063
-2.555
-4.876
-8.065
-12.188
-17.368
-23.591
-30.699
-38.323
-45.801
-52.484
-57.903
-61.651
-63.396
-63.16
-61.212
-58.197
-55.342
-53.836
-54.56
-57.883
-63.47
-70.131
-76.243
-79.798
-77.962
-67.774
-46.442
-12.036
35.668
95.275
164.525
240.405
318.47
393.35
458.883
509.121
540.02
549.194
535.105
497.412
437.856
360.078
269.729
173.552
77.43
-13.367
-93.45
-158.234
-205.067
-233.261
-244.235
-240.966
-226.464
-203.928
-177.48
-151.201
-127.891
-109.118
-95.218
-85.541
-79.41
-76.06
-73.976
-71.469
-67.604
-62.043
-54.983
-47.037
-38.665
-30.218
-22.31
-15.617
-10.493
-7.034
-5.074
-4.261
-4.322
-5.036
-6.142
-7.359
-8.416
-9.109
-9.336
-9.066
-8.281
-6.964
-5.089
-2.643
0.343
3.818
7.726
12.011
16.625
21.509
26.595
31.806
37.056
42.28
47.442
52.515
57.483
62.337
67.065
71.661
76.139
80.508
84.773
88.935
92.988
96.931
100.767
104.501
108.136
111.67
115.096
118.406
121.592
124.644
127.549
130.293
132.858
135.23
137.395
139.344
141.066
142.55
143.785
144.762
145.471
145.904
146.052
145.905
145.456
144.697
143.622
142.228
140.511
138.469
136.102
133.41
130.397
127.067
123.423
119.473
115.224
110.685
105.867
100.78
95.437
89.851
84.036
78.007
71.781
65.374
58.805
52.09
45.25
38.303
31.271
24.174
17.03
9.863
2.691
-4.465
-11.584
-18.646
-25.631
-32.522
-39.3
-45.947
-52.448
-58.789
-64.955
-70.935
-76.718
-82.295
-87.657
-92.798
-97.713
-102.397
-106.848
-111.063
-115.041
-118.783
-122.29
-125.566
-128.613
-131.436
-134.041
-136.435
-138.624
-140.616
-142.42
-144.044
-145.497
-146.788
-147.928
-148.926
-149.792
-150.537
-151.17
-151.701
-152.141
-152.498
-152.782
-153
-153.161
-153.272
-153.338
-153.365
-153.36
-153.326
-153.268
-153.191
-153.098
-152.991
-152.874
-152.748
-152.616
-152.479
-152.337
-152.191
-152.041
-151.889
-151.734
-151.578
-151.42
-151.261
-151.102
-150.942
-150.781
-150.62
-150.456
-150.287
-150.114
-149.935
-149.75
-149.557
-149.356
-149.145
-148.926
-148.698
-148.461
-148.214
-147.957
-147.69
-147.411
-147.12
-146.817
-146.502
-146.172
-145.829
-145.472
-145.102
-144.717
-144.317
-143.9
-143.462
-143.004
-142.524
-142.018
-141.486
-140.925
-140.337
-139.725
-139.091
-138.437
-137.764
-137.077
-136.377
-135.669
-134.952
-134.223
-133.482
-132.73
-131.969
-131.203
-130.434
-129.663
-128.898
-128.147
-127.419
-126.724
-126.062
-125.433
-124.842
-124.297
-123.811
-123.403
-123.08
-122.843
-122.7
-122.655
-122.705
-122.84
-123.024
-123.202
-123.321
-123.343
-123.235
-122.971
-122.507
-121.795
-120.805
-119.518
-117.937
-116.075
-113.933
-111.523
-108.896
-106.138
-103.371
-100.758
-98.459
-96.601
-95.319
-94.73
-94.934
-96.06
-98.202
-101.38
-105.572
-110.721
-116.716
-123.498
-131.031
-138.985
-146.835
-154.008
-159.819
-163.885
-166.12
-166.105
-163.259
-157.577
-149.552
-140.071
-130.402
-120.8
-110.589
-99.718
-88.16
-75.158
-59.307
-38.141
-8.878
29.282
75.524
129.12
188.496
251.273
313.642
369.4
412.599
438.946
446.897
437.727
410.987
365.543
299.99
211.488
107.133
1.493
-90.62
-151.481
-177.987
-181.327
-171.743
-162.61
-158.602
-153.54
-145.804
-134.77
-121.367
-110.758
-104.728
-102.165
-102.349
-103.571
-103.987
-102.936
-99.983
-94.786
-87.733
-79.525
-70.657
-61.742
-53.52
-46.358
-40.457
-35.943
-32.651
-30.352
-28.879
-27.99
-27.406
-26.953
-26.46
-25.755
-24.752
-23.352
-21.457
-19.025
-16.027
-12.441
-8.277
-3.56
1.679
7.383
13.489
19.943
26.678
33.63
40.727
47.883
55.033
62.128
69.125
75.997
82.72
89.271
95.642
101.834
107.845
113.674
119.317
124.762
130.004
135.041
139.872
144.499
148.918
153.123
157.106
160.863
164.387
167.67
170.703
173.473
175.971
178.193
180.135
181.793
183.166
184.25
185.043
185.546
185.758
185.678
185.305
184.637
183.673
182.417
180.868
179.03
176.906
174.499
171.815
168.86
165.641
162.165
158.441
154.476
150.279
145.862
141.235
136.41
131.398
126.211
120.864
115.369
109.741
103.994
98.143
92.204
86.19
80.12
74.008
67.872
61.726
55.59
49.478
43.41
37.401
31.469
25.629
19.898
14.29
8.82
3.502
-1.651
-6.629
-11.419
-16.013
-20.402
-24.576
-28.531
-32.26
-35.759
-39.024
-42.053
-44.845
-47.399
-49.717
-51.801
-53.653
-55.277
-56.679
-57.865
-58.84
-59.612
-60.19
-60.582
-60.799
-60.85
-60.746
-60.498
-60.119
-59.62
-59.014
-58.312
-57.528
-56.674
-55.761
-54.801
-53.808
-52.791
-51.762
-50.731
-49.709
-48.704
-47.728
-46.786
-45.888
-45.04
-44.249
-43.52
-42.858
-42.268
-41.752
-41.314
-40.954
-40.675
-40.477
-40.36
-40.323
-40.365
-40.483
-40.674
-40.934
-41.258
-41.64
-42.074
-42.553
-43.07
-43.616
-44.183
-44.763
-45.347
-45.927
-46.493
-47.035
-47.546
-48.014
-48.432
-48.79
-49.081
-49.295
-49.426
-49.465
-49.408
-49.25
-48.985
-48.61
-48.122
-47.517
-46.794
-45.953
-44.995
-43.919
-42.729
-41.429
-40.025
-38.529
-36.95
-35.299
-33.588
-31.83
-30.04
-28.23
-26.412
-24.595
-22.79
-21.011
-19.271
-17.586
-15.971
-14.444
-13.021
-11.72
-10.553
-9.533
-8.666
-7.957
-7.413
-7.043
-6.858
-6.879
-7.119
-7.587
-8.29
-9.226
-10.377
-11.72
-13.215
-14.816
-16.485
-18.186
-19.886
-21.557
-23.16
-24.666
-26.052
-27.278
-28.309
-29.123
-29.696
-30.044
-30.238
-30.336
-30.423
-30.597
-30.906
-31.428
-32.261
-33.496
-35.25
-37.622
-40.635
-44.336
-48.824
-54.043
-59.825
-65.843
-71.487
-76.19
-79.515
-81.076
-80.589
-78.173
-74.225
-69.273
-64.301
-60.298
-58.008
-57.974
-60.226
-63.691
-66.646
-67.526
-64.216
-54.407
-35.989
-6.829
34.283
86.415
147.376
215.061
286.376
357.335
423.398
478.925
518.782
540.089
541.273
520.852
478.73
416.631
337.977
248.46
154.48
61.381
-25.893
-101.98
-162.424
-204.744
-228.422
-235.179
-228.047
-209.986
-184.253
-155.064
-126.524
-101.4
-81.201
-66.15
-55.585
-48.875
-45.221
-43.105
-40.89
-37.627
-32.946
-27.013
-20.363
-13.385
-6.401
0.034
5.324
9.176
11.551
12.641
12.797
12.313
11.428
10.423
9.602
9.193
9.334
10.089
11.444
13.395
15.948
19.098
22.815
27.054
31.757
36.865
42.329
48.082
54.049
60.148
66.289
72.407
78.463
84.428
90.284
96.019
101.626
107.102
112.456
117.693
122.816
127.82
132.703
137.46
142.095
146.611
151.01
155.29
159.444
163.464
167.34
171.062
174.617
177.99
181.161
184.118
186.849
189.344
191.592
193.585
195.312
196.764
197.935
198.816
199.4
199.676
199.639
199.281
198.598
197.587
196.244
194.57
192.563
190.225
187.561
184.573
181.267
177.651
173.731
169.517
165.019
160.251
155.224
149.954
144.457
138.748
132.845
126.768
120.534
114.164
107.676
101.091
94.43
87.713
80.961
74.194
67.434
60.702
54.018
47.402
40.875
34.454
28.158
22.005
16.009
10.188
4.554
-0.88
-6.101
-11.099
-15.865
-20.39
-24.669
-28.696
-32.468
-35.983
-39.241
-42.243
-44.991
-47.489
-49.74
-51.751
-53.527
-55.075
-56.404
-57.522
-58.438
-59.162
-59.703
-60.074
-60.284
-60.345
-60.269
-60.067
-59.75
-59.331
-58.82
-58.23
-57.572
-56.858
-56.1
-55.308
-54.495
-53.67
-52.844
-52.027
-51.227
-50.453
-49.713
-49.013
-48.36
-47.759
-47.216
-46.736
-46.323
-45.98
-45.712
-45.521
-45.409
-45.379
-45.431
-45.566
-45.784
-46.087
-46.472
-46.941
-47.49
-48.12
-48.827
-49.608
-50.461
-51.381
-52.362
-53.399
-54.486
-55.615
-56.778
-57.968
-59.178
-60.397
-61.618
-62.833
-64.032
-65.208
-66.351
-67.452
-68.502
-69.494
-70.417
-71.264
-72.028
-72.699
-73.271
-73.738
-74.093
-74.332
-74.449
-74.44
-74.302
-74.033
-73.63
-73.094
-72.425
-71.625
-70.697
-69.646
-68.478
-67.205
-65.838
-64.391
-62.876
-61.309
-59.707
-58.085
-56.459
-54.841
-53.243
-51.678
-50.161
-48.707
-47.333
-46.054
-44.882
-43.834
-42.922
-42.156
-41.545
-41.093
-40.798
-40.668
-40.709
-40.935
-41.371
-42.032
-42.926
-44.057
-45.421
-47.011
-48.812
-50.797
-52.923
-55.153
-57.448
-59.78
-62.124
-64.445
-66.709
-68.869
-70.862
-72.628
-74.139
-75.387
-76.376
-77.128
-77.653
-77.964
-78.133
-78.263
-78.462
-78.834
-79.48
-80.462
-81.89
-83.981
-86.819
-90.343
-94.299
-98.127
-101.304
-103.507
-104.298
-103.127
-99.916
-94.927
-89.001
-83.885
-81.004
-81.277
-85.848
-95.432
-109.501
-126.692
-144.269
-158.068
-164.703
-160.822
-142.327
-106.726
-53.221
15.846
93.911
176.249
260.084
343.972
429.521
509.573
570.719
601.24
587.479
529.983
443.453
341.779
241.912
152.121
68.519
-10.028
-83.591
-149.56
-201.127
-235.774
-255.094
-261.385
-257.453
-245.5
-227.308
-205.963
-184.975
-166.331
-150.565
-137.474
-126.723
-118.172
-111.636
-106.087
-100.04
-92.799
-84.324
-74.991
-65.388
-55.839
-46.534
-37.93
-30.637
-24.976
-21.008
-18.545
-17.218
-16.757
-16.944
-17.531
-18.233
-18.757
-18.893
-18.533
-17.638
-16.195
-14.183
-11.576
-8.366
-4.595
-0.31
4.43
9.561
15.033
20.777
26.716
32.767
38.839
44.865
50.809
56.644
62.355
67.937
73.379
78.682
83.866
88.938
93.905
98.77
103.53
108.183
112.736
117.193
121.557
125.827
129.994
134.05
137.987
141.791
145.449
148.944
152.256
155.371
158.275
160.956
163.404
165.608
167.558
169.243
170.657
171.789
172.631
173.173
173.408
173.327
172.925
172.197
171.14
169.751
168.028
165.972
163.586
160.873
157.838
154.485
150.824
146.863
142.613
138.085
133.292
128.25
122.971
117.475
111.776
105.893
99.844
93.647
87.321
80.885
74.359
67.762
61.113
54.432
47.738
41.053
34.395
27.785
21.241
14.782
8.426
2.191
-3.907
-9.852
-15.63
-21.228
-26.632
-31.831
-36.816
-41.578
-46.109
-50.404
-54.458
-58.266
-61.826
-65.138
-68.201
-71.015
-73.583
-75.907
-77.989
-79.835
-81.449
-82.837
-84.004
-84.958
-85.707
-86.258
-86.621
-86.805
-86.82
-86.676
-86.385
-85.957
-85.404
-84.739
-83.973
-83.119
-82.187
-81.191
-80.142
-79.051
-77.929
-76.788
-75.637
-74.488
-73.349
-72.23
-71.139
-70.086
-69.079
-68.124
-67.229
-66.4
-65.642
-64.962
-64.364
-63.852
-63.43
-63.101
-62.866
-62.726
-62.684
-62.736
-62.881
-63.117
-63.44
-63.844
-64.326
-64.878
-65.494
-66.168
-66.89
-67.656
-68.454
-69.277
-70.116
-70.96
-71.801
-72.628
-73.431
-74.2
-74.924
-75.594
-76.202
-76.738
-77.193
-77.56
-77.828
-77.993
-78.045
-77.978
-77.786
-77.463
-77.005
-76.412
-75.681
-74.816
-73.818
-72.689
-71.436
-70.064
-68.58
-66.993
-65.308
-63.535
-61.684
-59.766
-57.796
-55.786
-53.752
-51.71
-49.679
-47.679
-45.727
-43.838
-42.027
-40.308
-38.694
-37.198
-35.827
-34.591
-33.502
-32.572
-31.813
-31.234
-30.839
-30.629
-30.603
-30.762
-31.104
-31.621
-32.3
-33.135
-34.122
-35.271
-36.599
-38.105
-39.778
-41.606
-43.574
-45.673
-47.884
-50.165
-52.455
-54.687
-56.811
-58.81
-60.675
-62.375
-63.864
-65.075
-65.948
-66.484
-66.681
-66.515
-65.946
-64.905
-63.39
-61.508
-59.412
-57.282
-55.261
-53.393
-51.774
-50.605
-49.924
-49.687
-49.673
-49.309
-48.17
-46.054
-42.62
-37.688
-31.498
-24.444
-17.401
-11.832
-8.814
-9.245
-14.19
-23.839
-37.288
-52.855
-67.767
-78.666
-82.631
-76.664
-57.526
-23.318
25.946
88.518
160.931
238.756
317.227
390.876
453.359
498.894
523.615
525.369
503.464
458.936
394.353
313.657
222.635
128.012
35.568
-49.289
-121.273
-177.057
-215.199
-235.556
-240.001
-231.803
-214.012
-190.391
-165.577
-142.678
-123.448
-108.944
-98.905
-92.432
-88.864
-86.869
-84.393
-80.346
-74.368
-66.428
-57.159
-47.182
-36.832
-26.732
-17.715
-10.214
-4.412
-0.283
2.52
4.259
5.09
5.274
5.07
4.713
4.462
4.493
4.869
5.658
6.908
8.645
10.914
13.725
17.034
20.794
24.946
29.439
34.232
39.274
44.499
49.834
55.192
60.513
65.762
70.911
75.947
80.858
85.628
90.261
94.775
99.186
103.503
107.729
111.86
115.899
119.853
123.73
127.535
131.268
134.923
138.493
141.972
145.349
148.612
151.744
154.725
157.539
160.171
162.609
164.84
166.851
168.63
170.163
171.442
172.456
173.193
173.644
173.797
173.646
173.184
172.405
171.306
169.883
168.136
166.063
163.667
160.951
157.918
154.573
150.922
146.974
142.738
138.226
133.451
128.426
123.167
117.69
112.014
106.158
100.14
93.983
87.706
81.332
74.883
68.38
61.846
55.303
48.772
42.275
35.833
29.466
23.195
17.037
11.011
5.133
-0.581
-6.116
-11.459
-16.597
-21.52
-26.217
-30.679
-34.899
-38.872
-42.593
-46.058
-49.267
-52.218
-54.914
-57.357
-59.55
-61.498
-63.208
-64.688
-65.945
-66.988
-67.829
-68.477
-68.943
-69.24
-69.379
-69.373
-69.233
-68.971
-68.6
-68.132
-67.579
-66.953
-66.266
-65.529
-64.754
-63.953
-63.135
-62.312
-61.493
-60.687
-59.904
-59.151
-58.436
-57.767
-57.15
-56.59
-56.094
-55.666
-55.308
-55.026
-54.82
-54.692
-54.643
-54.673
-54.782
-54.969
-55.231
-55.568
-55.976
-56.455
-57
-57.609
-58.278
-59.002
-59.778
-60.599
-61.462
-62.358
-63.282
-64.228
-65.189
-66.159
-67.131
-68.097
-69.05
-69.984
-70.893
-71.767
-72.601
-73.387
-74.117
-74.785
-75.386
-75.913
-76.36
-76.723
-76.997
-77.18
-77.267
-77.257
-77.147
-76.934
-76.616
-76.194
-75.668
-75.039
-74.307
-73.476
-72.551
-71.539
-70.451
-69.293
-68.075
-66.805
-65.494
-64.153
-62.79
-61.41
-60.02
-58.628
-57.243
-55.878
-54.546
-53.258
-52.029
-50.873
-49.804
-48.835
-47.971
-47.216
-46.576
-46.061
-45.683
-45.466
-45.424
-45.568
-45.908
-46.447
-47.177
-48.074
-49.1
-50.198
-51.323
-52.436
-53.503
-54.499
-55.385
-56.118
-56.677
-57.034
-57.165
-57.059
-56.698
-56.08
-55.267
-54.364
-53.489
-52.796
-52.396
-52.358
-52.799
-53.843
-55.623
-58.282
-61.888
-66.418
-71.887
-78.385
-85.862
-94.116
-102.703
-110.832
-117.805
-123.288
-127.012
-128.701
-128.353
-126.085
-122.4
-118.707
-116.339
-115.656
-116.531
-118.312
-119.679
-119.478
-116.075
-106.293
-86.868
-55.919
-12.738
41.717
105.109
175.288
249.035
320.784
384.199
433.53
464.298
474.477
463.661
431.436
379.145
310.897
232.379
150.28
70.835
-1.926
-64.988
-115.19
-150.946
-172.706
-182.388
-183.6
-180.134
-174.188
-167.455
-161.848
-158.413
-157.376
-158.265
-159.448
-159.134
-156.611
-151.631
-143.977
-133.852
-121.616
-107.812
-93.479
-79.717
-67.13
-56.009
-46.507
-38.587
-32.249
-27.488
-24.114
-21.858
-20.497
-19.837
-19.726
-20.044
-20.597
-21.127
-21.436
-21.376
-20.854
-19.841
-18.309
-16.225
-13.594
-10.452
-6.845
-2.831
1.537
6.222
11.171
16.318
21.585
26.884
32.149
37.339
42.428
47.403
52.258
56.989
61.604
66.125
70.564
74.931
79.227
83.448
87.595
91.672
95.685
99.636
103.523
107.34
111.079
114.732
118.287
121.729
125.04
128.2
131.193
134.004
136.62
139.026
141.21
143.157
144.855
146.295
147.463
148.347
148.938
149.223
149.194
148.844
148.168
147.16
145.817
144.138
142.124
139.779
137.105
134.107
130.794
127.174
123.257
119.055
114.583
109.853
104.882
99.686
94.286
88.699
82.945
77.046
71.023
64.898
58.694
52.433
46.139
39.834
33.541
27.283
21.081
14.958
8.935
3.031
-2.735
-8.344
-13.781
-19.029
-24.076
-28.908
-33.516
-37.889
-42.019
-45.9
-49.527
-52.896
-56.006
-58.854
-61.443
-63.773
-65.847
-67.669
-69.245
-70.581
-71.684
-72.564
-73.229
-73.689
-73.956
-74.04
-73.955
-73.711
-73.323
-72.802
-72.16
-71.412
-70.569
-69.644
-68.649
-67.597
-66.499
-65.367
-64.212
-63.044
-61.875
-60.712
-59.567
-58.445
-57.357
-56.309
-55.308
-54.361
-53.473
-52.651
-51.899
-51.221
-50.62
-50.1
-49.662
-49.306
-49.032
-48.84
-48.729
-48.697
-48.742
-48.861
-49.052
-49.311
-49.635
-50.019
-50.458
-50.945
-51.475
-52.042
-52.638
-53.255
-53.886
-54.522
-55.157
-55.784
-56.394
-56.981
-57.535
-58.05
-58.517
-58.928
-59.275
-59.55
-59.746
-59.856
-59.876
-59.803
-59.633
-59.363
-58.991
-58.518
-57.941
-57.263
-56.482
-55.599
-54.616
-53.536
-52.365
-51.108
-49.772
-48.366
-46.899
-45.387
-43.84
-42.271
-40.69
-39.107
-37.534
-35.982
-34.458
-32.969
-31.521
-30.126
-28.798
-27.552
-26.402
-25.356
-24.422
-23.607
-22.92
-22.367
-21.948
-21.652
-21.474
-21.417
-21.493
-21.726
-22.127
-22.691
-23.406
-24.259
-25.231
-26.298
-27.417
-28.517
-29.533
-30.424
-31.172
-31.783
-32.259
-32.579
-32.707
-32.61
-32.27
-31.683
-30.854
-29.781
-28.486
-27.02
-25.471
-23.978
-22.676
-21.676
-21.079
-20.929
-21.208
-21.881
-22.943
-24.44
-26.364
-28.523
-30.516
-31.926
-32.484
-32.188
-31.079
-28.814
-25.068
-20.038
-14.493
-9.592
-6.232
-4.224
-2.753
-1.607
-0.55
1.38
5.945
15.961
34.015
60.644
94.997
136.406
183.58
234.255
285.113
330.899
366.18
387.542
392.838
380.451
350.336
303.732
243.293
174.165
102.116
32.051
-31.239
-83.696
-123.066
-148.237
-159.479
-159.114
-149.922
-134.759
-117.241
-100.396
-85.996
-75.24
-68.372
-64.605
-63.204
-63.211
-63.035
-61.597
-58.443
-53.306
-46.484
-38.577
-29.968
-21.196
-12.991
-5.744
0.342
5.16
8.889
11.718
13.77
15.282
16.485
17.536
18.62
19.85
21.263
22.94
24.934
27.266
29.979
33.081
36.549
40.375
44.532
48.974
53.667
58.557
63.584
68.693
73.815
78.897
83.909
88.823
93.622
98.301
102.846
107.26
111.555
115.741
119.821
123.805
127.69
131.48
135.185
138.813
142.374
145.874
149.312
152.685
155.991
159.224
162.375
165.434
168.384
171.214
173.911
176.465
178.867
181.106
183.169
185.044
186.721
188.186
189.427
190.429
191.179
191.664
191.871
191.79
191.412
190.727
189.727
188.405
186.758
184.782
182.475
179.835
176.862
173.561
169.934
165.988
161.732
157.174
152.327
147.203
141.817
136.185
130.324
124.253
117.992
111.56
104.981
98.276
91.47
84.587
77.651
70.689
63.726
56.788
49.899
43.085
36.37
29.777
23.328
17.045
10.947
5.054
-0.619
-6.055
-11.241
-16.165
-20.816
-25.186
-29.269
-33.059
-36.555
-39.754
-42.658
-45.268
-47.588
-49.625
-51.385
-52.877
-54.11
-55.097
-55.849
-56.38
-56.705
-56.838
-56.796
-56.595
-56.252
-55.783
-55.205
-54.536
-53.791
-52.989
-52.143
-51.27
-50.385
-49.501
-48.631
-47.786
-46.978
-46.217
-45.511
-44.869
-44.297
-43.802
-43.388
-43.058
-42.817
-42.665
-42.602
-42.629
-42.742
-42.941
-43.22
-43.577
-44.006
-44.501
-45.058
-45.669
-46.328
-47.029
-47.762
-48.52
-49.295
-50.079
-50.863
-51.637
-52.395
-53.128
-53.829
-54.491
-55.107
-55.672
-56.18
-56.624
-57
-57.303
-57.529
-57.672
-57.73
-57.699
-57.578
-57.367
-57.066
-56.675
-56.198
-55.634
-54.989
-54.263
-53.462
-52.588
-51.645
-50.638
-49.573
-48.456
-47.296
-46.102
-44.887
-43.663
-42.439
-41.228
-40.042
-38.887
-37.773
-36.707
-35.693
-34.736
-33.841
-33.015
-32.27
-31.62
-31.071
-30.633
-30.313
-30.113
-30.04
-30.098
-30.281
-30.584
-31.005
-31.546
-32.232
-33.082
-34.098
-35.277
-36.602
-38.05
-39.606
-41.24
-42.895
-44.516
-46.036
-47.4
-48.596
-49.623
-50.467
-51.107
-51.487
-51.566
-51.348
-50.868
-50.161
-49.267
-48.207
-47.034
-45.861
-44.839
-44.153
-43.964
-44.378
-45.464
-47.212
-49.658
-52.921
-56.959
-61.568
-66.386
-70.787
-74.253
-76.66
-77.822
-77.492
-75.737
-72.521
-68.248
-64.242
-61.624
-60.859
-62.013
-64.313
-66.423
-67.575
-66.293
-59.795
-45.331
-20.513
15.66
61.984
116.277
176.722
240.591
303.733
361.037
406.745
436.986
450.264
446.108
424.197
384.686
329.304
262.083
188.591
113.255
39.452
-29.907
-91.766
-142.296
-179.136
-202.479
-213.892
-214.922
-207.126
-191.967
-171.685
-150.019
-129.677
-111.748
-96.669
-84.377
-74.787
-68.032
-63.513
-59.632
-55.396
-50.5
-44.917
-39.096
-33.345
-27.699
-22.491
-18.322
-15.504
-14.105
-14.006
-14.812
-16.197
-17.96
-19.835
-21.541
-22.865
-23.651
-23.826
-23.406
-22.399
-20.792
-18.588
-15.796
-12.452
-8.612
-4.333
0.326
5.294
10.493
15.843
21.264
26.699
32.112
37.478
42.786
48.03
53.201
58.297
63.322
68.277
73.159
77.965
82.688
87.325
91.876
96.343
100.727
105.021
109.217
113.304
117.272
121.107
124.794
128.318
131.659
134.804
137.741
140.458
142.946
145.194
147.192
148.931
150.403
151.6
152.513
153.134
153.454
153.468
153.17
152.557
151.625
150.374
148.802
146.912
144.705
142.187
139.361
136.234
132.812
129.103
125.116
120.861
116.349
111.593
106.603
101.395
95.984
90.384
84.613
78.686
72.621
66.436
60.148
53.775
47.337
40.852
34.338
27.816
21.305
14.823
8.391
2.026
-4.252
-10.427
-16.481
-22.398
-28.164
-33.764
-39.185
-44.415
-49.442
-54.255
-58.846
-63.206
-67.328
-71.206
-74.835
-78.211
-81.333
-84.199
-86.81
-89.167
-91.273
-93.131
-94.746
-96.122
-97.267
-98.186
-98.889
-99.384
-99.681
-99.791
-99.726
-99.498
-99.119
-98.603
-97.963
-97.213
-96.366
-95.437
-94.439
-93.386
-92.292
-91.169
-90.032
-88.893
-87.764
-86.657
-85.583
-84.553
-83.577
-82.662
-81.816
-81.046
-80.358
-79.757
-79.247
-78.832
-78.513
-78.294
-78.174
-78.152
-78.228
-78.399
-78.66
-79.007
-79.434
-79.932
-80.496
-81.115
-81.78
-82.483
-83.213
-83.961
-84.715
-85.466
-86.201
-86.911
-87.584
-88.211
-88.781
-89.285
-89.713
-90.057
-90.31
-90.468
-90.524
-90.475
-90.317
-90.048
-89.667
-89.173
-88.566
-87.848
-87.021
-86.089
-85.057
-83.934
-82.731
-81.461
-80.138
-78.775
-77.389
-75.996
-74.611
-73.247
-71.917
-70.631
-69.4
-68.238
-67.157
-66.173
-65.297
-64.543
-63.922
-63.442
-63.11
-62.93
-62.903
-63.03
-63.308
-63.74
-64.335
-65.111
-66.082
-67.256
-68.626
-70.183
-71.91
-73.788
-75.789
-77.87
-79.982
-82.077
-84.105
-86.025
-87.811
-89.437
-90.852
-91.994
-92.801
-93.246
-93.353
-93.15
-92.658
-91.887
-90.836
-89.583
-88.268
-87.029
-86.023
-85.392
-85.179
-85.498
-86.56
-88.403
-90.94
-93.881
-96.572
-98.487
-99.345
-98.724
-96.316
-92.268
-86.932
-81.209
-76.658
-74.381
-75.184
-80.017
-88.97
-100.991
-114.338
-126.215
-133.123
-132.147
-120.443
-94.936
-53.998
2.026
71.223
150.074
233.932
317.851
396.215
462.478
510.82
537.412
540.026
517.849
471.977
405.16
321.624
227.548
129.933
34.758
-52.334
-125.877
-182.488
-220.782
-240.813
-244.76
-236.139
-218.197
-194.865
-170.858
-149.309
-131.969
-119.8
-112.378
-108.649
-107.796
-108.38
-108.317
-106.494
-102.524
-96.364
-88.658
-80.057
-70.942
-61.962
-53.941
-47.295
-42.195
-38.617
-36.223
-34.756
-34.058
-33.865
-33.928
-34.03
-33.932
-33.483
-32.631
-31.314
-29.492
-27.146
-24.24
-20.772
-16.783
-12.32
-7.437
-2.189
3.383
9.223
15.265
21.436
27.645
33.83
39.949
45.971
51.878
57.654
63.283
68.762
74.108
79.331
84.438
89.432
94.305
99.059
103.699
108.231
112.662
116.991
121.214
125.326
129.32
133.188
136.92
140.5
143.909
147.131
150.153
152.963
155.549
157.9
160.001
161.843
163.416
164.709
165.712
166.413
166.803
166.872
166.613
166.019
165.087
163.81
162.188
160.217
157.9
155.238
152.234
148.891
145.216
141.216
136.9
132.28
127.369
122.179
116.727
111.032
105.11
98.984
92.674
86.201
79.588
72.859
66.037
59.145
52.209
45.251
38.295
31.364
24.483
17.672
10.955
4.351
-2.12
-8.438
-14.585
-20.546
-26.305
-31.847
-37.161
-42.235
-47.058
-51.623
-55.923
-59.953
-63.71
-67.191
-70.397
-73.329
-75.99
-78.384
-80.516
-82.393
-84.023
-85.414
-86.574
-87.513
-88.242
-88.769
-89.107
-89.264
-89.252
-89.081
-88.761
-88.302
-87.716
-87.011
-86.199
-85.29
-84.293
-83.219
-82.077
-80.877
-79.628
-78.338
-77.016
-75.67
-74.308
-72.936
-71.561
-70.19
-68.827
-67.478
-66.147
-64.84
-63.56
-62.311
-61.097
-59.92
-58.786
-57.696
-56.655
-55.666
-54.734
-53.861
-53.051
-52.308
-51.632
-51.028
-50.494
-50.032
-49.64
-49.318
-49.064
-48.875
-48.748
-48.681
-48.669
-48.707
-48.791
-48.915
-49.073
-49.258
-49.465
-49.687
-49.916
-50.145
-50.368
-50.578
-50.768
-50.933
-51.065
-51.157
-51.202
-51.194
-51.124
-50.986
-50.774
-50.482
-50.107
-49.645
-49.098
-48.471
-47.765
-46.987
-46.142
-45.239
-44.283
-43.283
-42.244
-41.168
-40.063
-38.939
-37.806
-36.676
-35.561
-34.471
-33.42
-32.418
-31.474
-30.598
-29.795
-29.069
-28.427
-27.882
-27.453
-27.169
-27.053
-27.119
-27.372
-27.812
-28.435
-29.23
-30.172
-31.22
-32.335
-33.48
-34.618
-35.727
-36.773
-37.726
-38.543
-39.17
-39.553
-39.68
-39.568
-39.237
-38.732
-38.082
-37.319
-36.555
-35.927
-35.568
-35.632
-36.242
-37.472
-39.452
-42.362
-46.224
-50.949
-56.254
-61.567
-66.429
-70.521
-73.398
-74.704
-74.453
-72.89
-70.751
-69.313
-69.435
-71.712
-76.91
-85.099
-95.421
-106.394
-115.569
-119.947
-117.107
-104.63
-79.807
-41.241
10.891
74.992
147.898
225.927
305.151
380.498
445.972
496.352
527.829
538.337
527.151
493.78
439.258
367.029
282.326
191.152
99.12
10.801
-69.258
-135.918
-185.869
-218.234
-233.939
-235.538
-225.848
-207.31
-183.292
-158.243
-135.329
-116.256
-101.708
-91.088
-83.697
-79.146
-76.297
-73.329
-69.179
-63.42
-56.047
-47.718
-38.969
-30.078
-21.614
-14.299
-8.519
-4.42
-1.922
-0.666
-0.371
-0.826
-1.733
-2.788
-3.714
-4.291
-4.409
-4.035
-3.137
-1.685
0.341
2.951
6.112
9.773
13.887
18.401
23.266
28.417
33.776
39.259
44.776
50.262
55.676
60.989
66.182
71.244
76.165
80.947
85.604
90.149
94.585
98.917
103.143
107.264
111.287
115.22
119.069
122.836
126.519
130.113
133.613
137.012
140.3
143.466
146.492
149.366
152.079
154.619
156.98
159.152
161.125
162.89
164.439
165.763
166.853
167.697
168.287
168.613
168.667
168.442
167.933
167.133
166.04
164.651
162.964
160.98
158.699
156.124
153.256
150.1
146.661
142.947
138.965
134.723
130.231
125.502
120.548
115.382
110.019
104.474
98.765
92.907
86.92
80.822
74.633
68.373
62.063
55.724
49.379
43.049
36.756
30.52
24.363
18.304
12.362
6.555
0.901
-4.586
-9.889
-14.996
-19.893
-24.568
-29.012
-33.215
-37.17
-40.871
-44.313
-47.491
-50.406
-53.055
-55.439
-57.561
-59.424
-61.033
-62.394
-63.514
-64.402
-65.068
-65.523
-65.778
-65.848
-65.744
-65.482
-65.076
-64.541
-63.891
-63.141
-62.307
-61.402
-60.44
-59.436
-58.401
-57.35
-56.294
-55.245
-54.214
-53.212
-52.247
-51.33
-50.468
-49.669
-48.938
-48.28
-47.701
-47.203
-46.789
-46.46
-46.217
-46.06
-45.987
-45.996
-46.083
-46.243
-46.471
-46.76
-47.102
-47.49
-47.914
-48.366
-48.836
-49.316
-49.797
-50.27
-50.727
-51.16
-51.559
-51.916
-52.224
-52.474
-52.658
-52.769
-52.799
-52.743
-52.598
-52.358
-52.021
-51.585
-51.047
-50.407
-49.665
-48.82
-47.874
-46.83
-45.689
-44.459
-43.145
-41.756
-40.303
-38.799
-37.257
-35.691
-34.116
-32.544
-30.988
-29.46
-27.969
-26.524
-25.133
-23.805
-22.55
-21.384
-20.323
-19.383
-18.576
-17.914
-17.404
-17.055
-16.871
-16.849
-16.984
-17.275
-17.727
-18.359
-19.19
-20.227
-21.469
-22.907
-24.517
-26.277
-28.151
-30.078
-32.002
-33.868
-35.636
-37.305
-38.878
-40.348
-41.703
-42.9
-43.903
-44.714
-45.329
-45.747
-45.997
-46.098
-46.125
-46.209
-46.458
-46.97
-47.836
-49.088
-50.764
-52.917
-55.504
-58.525
-62.047
-65.962
-70.088
-74.145
-77.547
-79.755
-80.541
-79.638
-76.776
-72.075
-65.817
-58.704
-52.287
-48.007
-46.367
-47.315
-50.349
-54.326
-57.894
-59.083
-54.519
-40.761
-15.983
20.153
66.794
122.011
183.278
247.094
308.023
359.842
397.695
418.366
419.875
401.331
363.114
307.17
237.635
160.338
80.838
3.872
-65.986
-124.377
-168.391
-196.782
-210.038
-210.484
-200.797
-183.447
-161.672
-139.275
-118.973
-102.389
-90.194
-81.848
-76.676
-74.198
-73.246
-72.188
-70.03
-66.288
-60.949
-54.577
-47.627
-40.377
-33.334
-27.111
-22.07
-18.374
-15.951
-14.503
-13.789
-13.612
-13.754
-13.996
-14.126
-13.984
-13.472
-12.555
-11.216
-9.438
-7.197
-4.481
-1.307
2.299
6.285
10.603
15.21
20.05
25.063
30.19
35.354
40.502
45.602
50.625
55.558
60.393
65.115
69.72
74.217
78.61
82.904
87.101
91.199
95.197
99.1
102.915
106.648
110.302
113.872
117.354
120.744
124.034
127.217
130.283
133.215
136.004
138.64
141.114
143.419
145.546
147.484
149.226
150.762
152.083
153.181
154.046
154.668
155.038
155.149
154.996
154.572
153.874
152.896
151.636
150.093
148.266
146.155
143.762
141.088
138.136
134.91
131.418
127.665
123.659
119.41
114.927
110.223
105.311
100.205
94.919
89.47
83.875
78.153
72.323
66.404
60.415
54.379
48.316
42.246
36.192
30.174
24.211
18.325
12.533
6.855
1.308
-4.092
-9.33
-14.39
-19.26
-23.927
-28.38
-32.609
-36.606
-40.363
-43.874
-47.134
-50.14
-52.89
-55.385
-57.626
-59.615
-61.358
-62.86
-64.128
-65.172
-66.001
-66.625
-67.057
-67.309
-67.393
-67.325
-67.119
-66.788
-66.347
-65.81
-65.193
-64.509
-63.771
-62.993
-62.188
-61.368
-60.545
-59.73
-58.934
-58.168
-57.44
-56.76
-56.135
-55.573
-55.078
-54.656
-54.311
-54.046
-53.861
-53.759
-53.738
-53.798
-53.935
-54.147
-54.429
-54.775
-55.18
-55.634
-56.132
-56.664
-57.221
-57.795
-58.377
-58.957
-59.529
-60.082
-60.608
-61.099
-61.546
-61.941
-62.277
-62.545
-62.738
-62.85
-62.875
-62.809
-62.646
-62.386
-62.023
-61.558
-60.989
-60.315
-59.537
-58.658
-57.68
-56.605
-55.439
-54.191
-52.869
-51.487
-50.057
-48.591
-47.103
-45.608
-44.117
-42.643
-41.197
-39.785
-38.418
-37.107
-35.862
-34.698
-33.629
-32.668
-31.825
-31.112
-30.533
-30.1
-29.816
-29.684
-29.706
-29.885
-30.23
-30.762
-31.499
-32.445
-33.596
-34.938
-36.447
-38.101
-39.87
-41.708
-43.571
-45.407
-47.163
-48.811
-50.326
-51.688
-52.868
-53.809
-54.461
-54.814
-54.889
-54.739
-54.42
-53.969
-53.434
-52.891
-52.449
-52.255
-52.452
-53.155
-54.459
-56.374
-58.934
-62.276
-66.378
-71.062
-76.032
-80.676
-84.442
-87.195
-88.762
-88.906
-87.82
-85.61
-82.451
-79.416
-77.429
-76.67
-77.364
-79.092
-80.347
-80.263
-78.116
-71.787
-59.33
-39.248
-9.674
29.513
76.455
130.025
189.001
250.259
310.371
365.105
408.857
437.969
450.824
445.322
420.051
375.843
314.572
240.157
158.931
76.275
-3.335
-74.721
-133.557
-177.399
-204.952
-216.976
-216.47
-206.282
-189.391
-169.748
-150.622
-134.134
-121.698
-113.47
-108.52
-106.067
-105.047
-103.759
-101.041
-96.347
-89.495
-80.952
-71.409
-61.347
-51.356
-42.197
-34.321
-27.957
-23.169
-19.721
-17.362
-15.913
-15.138
-14.802
-14.725
-14.718
-14.591
-14.231
-13.541
-12.446
-10.91
-8.891
-6.358
-3.315
0.207
4.155
8.472
13.107
18.018
23.159
28.47
33.884
39.323
44.732
50.074
55.324
60.464
65.478
70.351
75.086
79.698
84.201
88.602
92.902
97.096
101.185
105.176
109.072
112.877
116.587
120.195
123.695
127.08
130.34
133.463
136.434
139.234
141.849
144.266
146.475
148.464
150.222
151.737
152.999
154
154.731
155.183
155.347
155.214
154.778
154.035
152.98
151.61
149.922
147.917
145.596
142.961
140.016
136.766
133.217
129.378
125.257
120.866
116.218
111.327
106.206
100.873
95.344
89.639
83.777
77.777
71.661
65.448
59.162
52.825
46.457
40.081
33.717
27.389
21.117
14.921
8.823
2.84
-3.009
-8.706
-14.234
-19.578
-24.725
-29.661
-34.376
-38.86
-43.104
-47.101
-50.846
-54.336
-57.568
-60.54
-63.254
-65.711
-67.914
-69.868
-71.58
-73.057
-74.305
-75.336
-76.158
-76.783
-77.221
-77.485
-77.585
-77.534
-77.345
-77.03
-76.602
-76.073
-75.457
-74.765
-74.01
-73.204
-72.358
-71.482
-70.587
-69.681
-68.775
-67.875
-66.99
-66.125
-65.289
-64.484
-63.717
-62.991
-62.309
-61.672
-61.082
-60.538
-60.041
-59.59
-59.183
-58.82
-58.498
-58.215
-57.97
-57.759
-57.58
-57.428
-57.3
-57.191
-57.096
-57.01
-56.928
-56.845
-56.756
-56.656
-56.542
-56.409
-56.253
-56.069
-55.853
-55.602
-55.312
-54.98
-54.603
-54.178
-53.703
-53.179
-52.604
-51.98
-51.308
-50.588
-49.821
-49.01
-48.154
-47.257
-46.321
-45.348
-44.34
-43.302
-42.241
-41.165
-40.083
-39.004
-37.939
-36.898
-35.891
-34.927
-34.014
-33.157
-32.36
-31.627
-30.965
-30.379
-29.879
-29.475
-29.175
-28.986
-28.915
-28.962
-29.13
-29.418
-29.82
-30.333
-30.954
-31.687
-32.554
-33.57
-34.742
-36.068
-37.535
-39.119
-40.796
-42.535
-44.286
-46
-47.629
-49.129
-50.48
-51.669
-52.687
-53.507
-54.072
-54.333
-54.27
-53.899
-53.268
-52.424
-51.409
-50.282
-49.133
-48.087
-47.282
-46.851
-46.901
-47.506
-48.685
-50.507
-53.119
-56.529
-60.589
-64.931
-68.931
-72.027
-73.849
-74.112
-72.536
-69.163
-64.316
-58.724
-53.723
-50.654
-50.508
-53.633
-59.626
-67.221
-74.655
-79.824
-79.833
-71.497
-51.84
-19.074
26.814
84.092
150.046
221.632
294.655
363.814
423.206
467.631
493.683
499.885
485.795
451.141
397.299
327.706
247.352
161.884
76.347
-5.248
-78.966
-140.332
-186.472
-216.639
-231.634
-233.69
-225.297
-208.659
-186.809
-163.791
-142.499
-124.497
-110.507
-100.107
-92.738
-88.089
-85.081
-81.991
-77.837
-72.227
-65.149
-57.197
-48.836
-40.3
-32.135
-25.027
-19.34
-15.22
-12.574
-11.057
-10.408
-10.423
-10.844
-11.406
-11.85
-11.97
-11.666
-10.904
-9.666
-7.932
-5.676
-2.882
0.422
4.189
8.368
12.902
17.747
22.845
28.125
33.511
38.919
44.285
49.574
54.761
59.83
64.775
69.585
74.259
78.813
83.258
87.603
91.85
95.998
100.046
104.002
107.873
111.665
115.378
119.007
122.546
125.988
129.324
132.542
135.626
138.56
141.327
143.915
146.313
148.511
150.496
152.258
153.785
155.07
156.101
156.869
157.362
157.571
157.486
157.099
156.405
155.398
154.073
152.428
150.462
148.176
145.572
142.654
139.425
135.892
132.064
127.949
123.559
118.907
114.005
108.87
103.518
97.966
92.233
86.337
80.3
74.139
67.877
61.534
55.132
48.691
42.233
35.78
29.353
22.974
16.665
10.444
4.333
-1.651
-7.489
-13.165
-18.664
-23.971
-29.074
-33.96
-38.621
-43.046
-47.228
-51.161
-54.84
-58.263
-61.429
-64.336
-66.986
-69.382
-71.527
-73.426
-75.084
-76.508
-77.705
-78.682
-79.45
-80.016
-80.39
-80.585
-80.609
-80.475
-80.195
-79.779
-79.24
-78.589
-77.838
-76.998
-76.081
-75.098
-74.06
-72.979
-71.866
-70.731
-69.585
-68.438
-67.3
-66.179
-65.084
-64.023
-63.003
-62.031
-61.114
-60.257
-59.467
-58.748
-58.105
-57.543
-57.066
-56.674
-56.372
-56.16
-56.039
-56.01
-56.073
-56.228
-56.473
-56.807
-57.229
-57.737
-58.326
-58.993
-59.733
-60.54
-61.406
-62.324
-63.286
-64.283
-65.306
-66.345
-67.391
-68.434
-69.465
-70.473
-71.446
-72.375
-73.248
-74.055
-74.785
-75.427
-75.972
-76.412
-76.738
-76.944
-77.023
-76.971
-76.781
-76.451
-75.976
-75.354
-74.584
-73.665
-72.598
-71.384
-70.031
-68.547
-66.942
-65.228
-63.42
-61.532
-59.579
-57.578
-55.542
-53.486
-51.419
-49.357
-47.313
-45.304
-43.349
-41.467
-39.678
-37.999
-36.448
-35.036
-33.778
-32.681
-31.751
-30.994
-30.416
-30.03
-29.864
-29.938
-30.267
-30.855
-31.693
-32.764
-34.048
-35.516
-37.125
-38.825
-40.569
-42.307
-44.009
-45.654
-47.223
-48.68
-49.959
-51.004
-51.786
-52.313
-52.623
-52.755
-52.74
-52.62
-52.464
-52.383
-52.5
-52.946
-53.833
-55.241
-57.2
-59.785
-63.149
-67.297
-72.073
-77.094
-81.721
-85.377
-87.679
-88.336
-87.061
-83.906
-79.233
-73.78
-68.871
-65.834
-65.653
-68.693
-74.615
-82.173
-89.572
-94.727
-94.756
-86.44
-66.737
-33.657
13.106
72.046
140.628
216.03
294.122
369.512
436.065
488.052
521.426
534.144
525.163
493.582
440.443
369.12
284.819
193.811
101.851
13.606
-66.206
-132.286
-181.23
-212.043
-225.599
-224.575
-211.952
-190.395
-163.542
-136.096
-111.437
-91.413
-76.803
-67.007
-61.26
-59.067
-59.073
-59.233
-58.302
-55.716
-51.391
-45.944
-39.875
-33.43
-27.186
-21.874
-17.881
-15.356
-14.192
-14.006
-14.503
-15.467
-16.633
-17.742
-18.562
-18.908
-18.701
-17.929
-16.586
-14.669
-12.163
-9.058
-5.388
-1.202
3.443
8.485
13.872
19.54
25.419
31.436
37.513
43.592
49.639
55.628
61.542
67.37
73.099
78.721
84.242
89.669
94.999
100.235
105.37
110.401
115.329
120.16
124.893
129.526
134.052
138.461
142.746
146.896
150.897
154.736
158.396
161.86
165.119
168.159
170.971
173.543
175.863
177.921
179.705
181.206
182.414
183.316
183.904
184.167
184.098
183.691
182.94
181.841
180.389
178.584
176.425
173.914
171.052
167.842
164.29
160.403
156.188
151.656
146.819
141.688
136.279
130.607
124.69
118.545
112.193
105.654
98.949
92.102
85.134
78.071
70.935
63.751
56.545
49.341
42.165
35.04
27.991
21.042
14.215
7.533
1.016
-5.315
-11.442
-17.348
-23.016
-28.432
-33.583
-38.459
-43.048
-47.345
-51.343
-55.039
-58.43
-61.515
-64.297
-66.778
-68.963
-70.858
-72.471
-73.811
-74.888
-75.714
-76.301
-76.661
-76.81
-76.76
-76.528
-76.128
-75.576
-74.887
-74.078
-73.163
-72.159
-71.081
-69.944
-68.764
-67.554
-66.33
-65.103
-63.887
-62.694
-61.534
-60.417
-59.352
-58.348
-57.412
-56.549
-55.765
-55.065
-54.452
-53.927
-53.493
-53.151
-52.899
-52.737
-52.664
-52.678
-52.775
-52.954
-53.21
-53.541
-53.943
-54.411
-54.941
-55.528
-56.166
-56.851
-57.576
-58.332
-59.115
-59.916
-60.73
-61.548
-62.365
-63.172
-63.964
-64.734
-65.475
-66.181
-66.845
-67.462
-68.024
-68.527
-68.966
-69.336
-69.632
-69.852
-69.992
-70.05
-70.023
-69.911
-69.71
-69.42
-69.038
-68.567
-68.005
-67.353
-66.613
-65.789
-64.886
-63.915
-62.883
-61.799
-60.673
-59.515
-58.336
-57.146
-55.953
-54.762
-53.578
-52.412
-51.275
-50.179
-49.138
-48.159
-47.256
-46.44
-45.719
-45.101
-44.589
-44.18
-43.879
-43.693
-43.636
-43.734
-44.003
-44.451
-45.084
-45.899
-46.885
-48.025
-49.285
-50.616
-51.981
-53.347
-54.685
-55.983
-57.203
-58.308
-59.265
-60.023
-60.543
-60.799
-60.773
-60.486
-59.988
-59.343
-58.631
-57.934
-57.342
-56.959
-56.888
-57.239
-58.139
-59.661
-61.916
-65.072
-69.132
-73.994
-79.392
-84.765
-89.597
-93.49
-95.892
-96.361
-94.932
-91.902
-88.071
-84.77
-82.928
-83.296
-86.835
-93.789
-103.394
-114.13
-123.412
-128.127
-125.703
-113.55
-88.751
-49.508
4.303
71.197
148.006
230.634
314.578
394.541
464.215
517.526
550.11
559.293
543.829
504.222
442.765
363.269
271.522
174.63
78.814
-10.168
-86.608
-146.83
-189.218
-213.461
-221.378
-216.421
-201.778
-181.294
-159.706
-140.136
-124.364
-113.495
-107.181
-104.378
-104.298
-105.479
-105.827
-104.235
-100.253
-93.819
-85.62
-76.342
-66.424
-56.58
-47.658
-40.122
-34.204
-29.92
-26.973
-25.123
-24.208
-23.987
-24.212
-24.674
-25.161
-25.487
-25.537
-25.217
-24.441
-23.165
-21.35
-18.972
-16.037
-12.582
-8.661
-4.328
0.363
5.368
10.638
16.108
21.707
27.351
32.982
38.561
44.06
49.461
54.747
59.908
64.946
69.879
74.722
79.482
84.162
88.758
93.27
97.703
102.061
106.35
110.565
114.701
118.75
122.706
126.56
130.298
133.905
137.361
140.651
143.761
146.679
149.392
151.888
154.153
156.176
157.947
159.454
160.686
161.631
162.278
162.618
162.642
162.345
161.72
160.763
159.471
157.846
155.887
153.597
150.981
148.044
144.792
141.236
137.385
133.252
128.849
124.192
119.296
114.18
108.861
103.36
97.696
91.891
85.966
79.942
73.843
67.691
61.509
55.318
49.142
43.002
36.922
30.921
25.022
19.242
13.599
8.112
2.795
-2.338
-7.274
-12.003
-16.516
-20.805
-24.863
-28.686
-32.27
-35.615
-38.72
-41.586
-44.217
-46.615
-48.786
-50.737
-52.474
-54.007
-55.342
-56.491
-57.463
-58.269
-58.92
-59.426
-59.8
-60.054
-60.198
-60.244
-60.204
-60.087
-59.906
-59.67
-59.389
-59.072
-58.727
-58.361
-57.983
-57.599
-57.213
-56.83
-56.456
-56.092
-55.743
-55.41
-55.094
-54.798
-54.52
-54.263
-54.024
-53.805
-53.603
-53.417
-53.246
-53.087
-52.939
-52.8
-52.668
-52.54
-52.414
-52.288
-52.161
-52.028
-51.888
-51.738
-51.574
-51.394
-51.194
-50.972
-50.725
-50.45
-50.147
-49.813
-49.448
-49.05
-48.62
-48.157
-47.66
-47.131
-46.568
-45.972
-45.344
-44.684
-43.994
-43.275
-42.532
-41.765
-40.978
-40.174
-39.357
-38.53
-37.697
-36.862
-36.032
-35.21
-34.405
-33.623
-32.874
-32.167
-31.516
-30.933
-30.429
-30.018
-29.709
-29.515
-29.444
-29.505
-29.7
-30.036
-30.516
-31.148
-31.941
-32.906
-34.051
-35.384
-36.911
-38.633
-40.555
-42.673
-44.974
-47.452
-50.096
-52.904
-55.886
-59.05
-62.394
-65.912
-69.587
-73.39
-77.295
-81.261
-85.227
-89.14
-92.944
-96.603
-100.113
-103.47
-106.661
-109.675
-112.47
-115.006
-117.281
-119.281
-120.999
-122.461
-123.679
-124.702
-125.634
-126.545
-127.509
-128.592
-129.803
-131.168
-132.732
-134.46
-136.38
-138.587
-140.974
-143.366
-145.451
-146.642
-146.44
-144.539
-140.612
-134.432
-126.213
-116.42
-106.054
-96.765
-89.973
-86.691
-87.292
-91.284
-97.48
-104.236
-109.07
-108.65
-99.694
-79.257
-45.97
-0.468
55.52
119.411
187.421
254.767
315.937
364.868
397.106
410.42
403.649
376.876
331.816
271.336
199.822
123.332
47.266
-24.032
-86.365
-136.641
-173.343
-195.9
-205.221
-203.931
-194.615
-179.934
-163.233
-147.142
-133.218
-122.475
-114.994
-110.036
-106.99
-104.978
-102.529
-98.65
-92.935
-85.303
-76.199
-66.23
-55.798
-45.41
-35.746
-27.235
-20.102
-14.422
-9.994
-6.601
-4.093
-2.268
-0.927
0.089
0.962
1.876
2.945
4.262
5.898
7.885
10.269
13.089
16.345
20.01
24.04
28.381
32.991
37.837
42.875
48.052
53.302
58.549
63.74
68.842
73.832
78.697
83.422
87.997
92.427
96.731
100.926
105.021
109.021
112.924
116.733
120.459
124.108
127.689
131.202
134.645
138.014
141.307
144.516
147.632
150.643
153.534
156.29
158.902
161.358
163.648
165.762
167.688
169.414
170.931
172.228
173.293
174.114
174.679
174.979
175.005
174.749
174.203
173.363
172.223
170.781
169.037
166.991
164.644
161.998
159.059
155.832
152.326
148.549
144.513
140.228
135.707
130.965
126.018
120.882
115.573
110.11
104.513
98.8
92.993
87.113
81.18
75.217
69.246
63.289
57.367
51.502
45.715
40.025
34.452
29.014
23.727
18.607
13.666
8.918
4.372
0.039
-4.075
-7.964
-11.622
-15.047
-18.237
-21.191
-23.91
-26.396
-28.652
-30.682
-32.493
-34.091
-35.484
-36.68
-37.69
-38.525
-39.194
-39.712
-40.089
-40.34
-40.477
-40.515
-40.466
-40.344
-40.163
-39.936
-39.675
-39.393
-39.099
-38.804
-38.516
-38.245
-37.997
-37.78
-37.599
-37.459
-37.366
-37.323
-37.334
-37.401
-37.527
-37.713
-37.957
-38.261
-38.624
-39.044
-39.518
-40.046
-40.623
-41.248
-41.916
-42.624
-43.366
-44.137
-44.932
-45.744
-46.567
-47.395
-48.221
-49.038
-49.842
-50.628
-51.392
-52.129
-52.835
-53.506
-54.139
-54.731
-55.278
-55.776
-56.223
-56.616
-56.954
-57.237
-57.465
-57.639
-57.758
-57.823
-57.837
-57.8
-57.715
-57.581
-57.401
-57.176
-56.911
-56.609
-56.277
-55.921
-55.548
-55.17
-54.796
-54.435
-54.093
-53.779
-53.497
-53.251
-53.045
-52.878
-52.749
-52.665
-52.63
-52.652
-52.735
-52.881
-53.088
-53.357
-53.687
-54.077
-54.519
-54.999
-55.508
-56.049
-56.635
-57.29
-58.025
-58.831
-59.696
-60.614
-61.575
-62.562
-63.538
-64.435
-65.188
-65.754
-66.124
-66.306
-66.291
-66.045
-65.515
-64.648
-63.443
-61.925
-60.098
-57.952
-55.469
-52.653
-49.605
-46.511
-43.557
-40.897
-38.619
-36.742
-35.348
-34.59
-34.51
-35.017
-35.778
-36.245
-35.956
-34.641
-32.142
-28.328
-23.303
-17.359
-11.186
-6.074
-3.367
-4.133
-8.751
-16.805
-26.983
-37.449
-46.013
-49.684
-45.113
-29.084
0.364
43.328
98.05
161.593
230.648
300.874
366.873
422.719
463.374
485.68
488.478
471.81
435.903
382.383
314.72
237.693
156.438
75.446
-1.798
-71.9
-130.861
-176.087
-206.865
-223.763
-228.495
-223.032
-209.171
-189.623
-168.259
-147.865
-129.954
-115.367
-103.965
-95.46
-89.738
-85.818
-81.91
-76.964
-70.623
-62.857
-54.202
-45.077
-35.625
-26.358
-18.036
-11.084
-5.675
-1.754
1.035
2.952
4.134
4.801
5.187
5.514
6.029
6.867
8.057
9.635
11.619
14.035
16.925
20.282
24.047
28.162
32.563
37.194
42.016
46.975
52.01
57.054
62.033
66.9
71.634
76.216
80.641
84.899
88.981
92.894
96.662
100.303
103.828
107.246
110.557
113.767
116.891
119.935
122.906
125.806
128.631
131.377
134.04
136.613
139.085
141.444
143.674
145.762
147.699
149.472
151.071
152.486
153.704
154.716
155.512
156.08
156.41
156.492
156.314
155.867
155.144
154.137
152.841
151.251
149.364
147.177
144.693
141.911
138.834
135.467
131.817
127.892
123.702
119.259
114.576
109.667
104.548
99.238
93.755
88.118
82.347
76.463
70.489
64.446
58.356
52.242
46.126
40.029
33.975
27.985
22.08
16.281
10.607
5.078
-0.288
-5.476
-10.468
-15.253
-19.817
-24.151
-28.245
-32.093
-35.688
-39.028
-42.111
-44.937
-47.507
-49.825
-51.895
-53.724
-55.319
-56.69
-57.845
-58.797
-59.555
-60.133
-60.542
-60.797
-60.909
-60.892
-60.76
-60.526
-60.202
-59.803
-59.341
-58.829
-58.279
-57.704
-57.114
-56.522
-55.936
-55.366
-54.821
-54.308
-53.833
-53.403
-53.023
-52.696
-52.426
-52.214
-52.062
-51.971
-51.94
-51.968
-52.054
-52.194
-52.386
-52.627
-52.914
-53.243
-53.612
-54.016
-54.451
-54.915
-55.404
-55.913
-56.437
-56.972
-57.513
-58.054
-58.59
-59.115
-59.623
-60.109
-60.568
-60.995
-61.384
-61.731
-62.031
-62.278
-62.469
-62.6
-62.667
-62.667
-62.596
-62.452
-62.234
-61.942
-61.574
-61.132
-60.615
-60.023
-59.356
-58.615
-57.801
-56.915
-55.958
-54.93
-53.838
-52.685
-51.479
-50.23
-48.948
-47.64
-46.318
-44.994
-43.678
-42.378
-41.1
-39.852
-38.638
-37.47
-36.358
-35.312
-34.344
-33.462
-32.675
-31.99
-31.411
-30.944
-30.589
-30.345
-30.212
-30.194
-30.305
-30.566
-30.997
-31.604
-32.383
-33.328
-34.427
-35.664
-37.017
-38.444
-39.903
-41.35
-42.743
-44.055
-45.27
-46.364
-47.293
-47.995
-48.412
-48.532
-48.383
-47.992
-47.386
-46.572
-45.562
-44.441
-43.342
-42.405
-41.784
-41.594
-41.872
-42.704
-44.255
-46.578
-49.61
-53.051
-56.314
-58.844
-60.305
-60.491
-59.252
-56.735
-53.292
-49.641
-47.054
-46.792
-49.82
-56.45
-66.248
-77.836
-89.236
-98.201
-101.809
-96.947
-80.668
-51.03
-7.727
47.701
112.462
183.395
256.225
325.797
386.484
433.018
461.839
471.334
461.034
431.123
383.469
321.499
249.942
174.38
99.53
29.192
-32.869
-83.465
-120.987
-145.187
-157.277
-159.709
-154.703
-144.505
-132.078
-120.025
-109.959
-102.803
-98.517
-96.329
-95.655
-95.735
-95.283
-93.361
-89.551
-83.744
-76.322
-67.912
-58.956
-49.959
-41.597
-34.279
-28.21
-23.477
-19.923
-17.344
-15.601
-14.504
-13.813
-13.367
-13.002
-12.553
-11.935
-11.053
-9.813
-8.173
-6.095
-3.552
-0.55
2.89
6.742
10.953
15.468
20.246
25.228
30.362
35.585
40.823
46.019
51.137
56.147
61.034
65.784
70.385
74.838
79.159
83.355
87.437
91.411
95.274
99.032
102.691
106.258
109.742
113.145
116.465
119.698
122.839
125.883
128.819
131.636
134.318
136.852
139.226
141.43
143.456
145.291
146.926
148.349
149.551
150.523
151.255
151.734
151.952
151.898
151.565
150.946
150.035
148.826
147.316
145.502
143.383
140.958
138.228
135.195
131.863
128.237
124.324
120.133
115.674
110.958
105.999
100.81
95.408
89.81
84.032
78.094
72.015
65.815
59.514
53.134
46.696
40.221
33.731
27.247
20.792
14.387
8.052
1.806
-4.329
-10.336
-16.196
-21.893
-27.411
-32.735
-37.851
-42.747
-47.412
-51.835
-56.008
-59.925
-63.578
-66.965
-70.083
-72.93
-75.507
-77.816
-79.858
-81.64
-83.166
-84.443
-85.478
-86.28
-86.86
-87.227
-87.395
-87.373
-87.175
-86.812
-86.299
-85.649
-84.876
-83.994
-83.017
-81.96
-80.838
-79.666
-78.46
-77.233
-75.997
-74.763
-73.544
-72.355
-71.211
-70.126
-69.112
-68.178
-67.338
-66.6
-65.975
-65.466
-65.076
-64.799
-64.638
-64.596
-64.678
-64.891
-65.235
-65.698
-66.264
-66.919
-67.651
-68.449
-69.297
-70.177
-71.075
-71.982
-72.903
-73.846
-74.809
-75.783
-76.738
-77.638
-78.471
-79.247
-80.009
-80.811
-81.669
-82.557
-83.431
-84.27
-85.078
-85.897
-86.686
-87.298
-87.699
-88.05
-88.718
-90.114
-92.336
-95.051
-97.857
-100.646
-103.24
-105.173
-105.521
-103.13
-97.578
-89.535
-80.157
-70.201
-60.235
-50.968
-43.618
-39.842
-40.43
-44.734
-51.257
-58.833
-66.753
-74.46
-81.141
-85.502
-86.794
-85.395
-82.444
-78.936
-75.41
-72.093
-69.183
-67.196
-66.525
-67.08
-68.396
-70.009
-71.694
-73.441
-75.359
-77.447
-79.631
-81.898
-84.301
-86.912
-89.757
-92.8
-95.935
-99.047
-102.061
-104.91
-107.551
-109.971
-112.13
-113.978
-115.457
-116.496
-117.074
-117.209
-116.912
-116.166
-114.934
-113.216
-111.095
-108.758
-106.41
-104.247
-102.397
-100.986
-100.226
-100.187
-100.83
-101.958
-103.049
-103.643
-103.475
-102.216
-99.652
-96.053
-91.876
-87.948
-85.68
-86.017
-89.593
-97.253
-109.018
-123.837
-139.97
-154.595
-164.338
-166.563
-158.649
-137.648
-102.025
-51.85
11.235
83.713
161.538
240.555
315.595
380.672
430.498
461.222
470.821
458.808
425.277
371.808
301.949
220.882
134.736
49.032
-31.666
-102.901
-160.658
-202.741
-228.708
-239.93
-239.409
-230.053
-214.723
-197.009
-180.139
-166.15
-156.166
-150.099
-146.878
-145.58
-145.141
-144.025
-141.131
-135.952
-128.393
-118.943
-108.353
-97.202
-86.126
-75.86
-66.847
-59.307
-53.293
-48.615
-45.047
-42.417
-40.503
-39.054
-37.878
-36.787
-35.589
-34.164
-32.411
-30.235
-27.586
-24.429
-20.741
-16.529
-11.829
-6.685
-1.148
4.725
10.89
17.287
23.852
30.509
37.172
43.777
50.278
56.642
62.845
68.871
74.705
80.349
85.816
91.117
96.255
101.232
106.04
110.678
115.15
119.459
123.609
127.597
131.419
135.067
138.536
141.816
144.897
147.765
150.4
152.791
154.927
156.798
158.396
159.713
160.742
161.474
161.906
162.032
161.846
161.342
160.514
159.36
157.876
156.062
153.918
151.445
148.647
145.53
142.098
138.362
134.329
130.01
125.416
120.561
115.459
110.126
104.579
98.836
92.917
86.843
80.635
74.315
67.907
61.432
54.915
48.377
41.842
35.333
28.873
22.484
16.188
10.009
3.967
-1.916
-7.621
-13.127
-18.418
-23.477
-28.289
-32.841
-37.119
-41.113
-44.814
-48.214
-51.304
-54.08
-56.537
-58.675
-60.492
-61.99
-63.171
-64.041
-64.606
-64.872
-64.85
-64.548
-63.976
-63.148
-62.074
-60.768
-59.244
-57.516
-55.599
-53.51
-51.264
-48.877
-46.366
-43.746
-41.033
-38.243
-35.391
-32.492
-29.561
-26.614
-23.665
-20.729
-17.821
-14.953
-12.14
-9.394
-6.725
-4.146
-1.664
0.709
2.967
5.102
7.107
8.976
10.704
12.287
13.72
15.001
16.127
17.099
17.916
18.577
19.083
19.436
19.637
19.689
19.592
19.351
18.969
18.451
17.801
17.024
16.129
15.121
14.009
12.8
11.502
10.125
8.676
7.165
5.601
3.994
2.354
0.692
-0.981
-2.654
-4.317
-5.958
-7.568
-9.136
-10.652
-12.108
-13.494
-14.801
-16.019
-17.141
-18.157
-19.059
-19.84
-20.492
-21.009
-21.387
-21.621
-21.71
-21.651
-21.442
-21.085
-20.579
-19.926
-19.128
-18.189
-17.113
-15.905
-14.574
-13.132
-11.592
-9.967
-8.271
-6.521
-4.732
-2.921
-1.1
0.718
2.523
4.305
6.05
7.744
9.372
10.921
12.379
13.73
14.963
16.068
17.037
17.866
18.555
19.1
19.495
19.725
19.769
19.609
19.238
18.654
17.861
16.869
15.694
14.369
12.941
11.456
9.961
8.493
7.084
5.773
4.594
3.589
2.817
2.331
2.149
2.266
2.665
3.306
4.161
5.19
6.29
7.325
8.154
8.635
8.637
8.078
6.841
4.722
1.661
-2.272
-6.836
-11.489
-15.723
-19.232
-21.58
-22.24
-21.143
-18.449
-14.759
-11.538
-9.917
-10.538
-14.325
-21.794
-32.321
-44.758
-56.901
-65.113
-66.413
-58.177
-37.28
-1.749
48.738
113.324
189.163
271.688
356.478
438.298
510.783
568.457
606.879
622.977
615.739
585.285
532.445
460.22
373.576
277.967
179.249
82.721
-7.127
-85.458
-148.003
-192.79
-219.864
-230.592
-227.468
-213.121
-190.38
-163.363
-136.317
-111.96
-91.737
-76.066
-64.547
-56.765
-52.153
-49.181
-46.034
-41.752
-35.979
-28.892
-21.06
-12.849
-4.551
3.223
9.767
14.716
17.981
19.753
20.409
20.219
19.404
18.223
16.965
15.916
15.265
15.094
15.419
16.236
17.557
19.402
21.769
24.609
27.862
31.463
35.349
39.475
43.775
48.18
52.616
57.001
61.278
65.421
69.412
73.242
76.911
80.414
83.757
86.965
90.054
93.037
95.926
98.723
101.437
104.08
106.665
109.202
111.697
114.149
116.557
118.921
121.233
123.487
125.672
127.774
129.779
131.678
133.46
135.115
136.629
137.99
139.185
140.2
141.022
141.635
142.025
142.175
142.071
141.701
141.051
140.111
138.871
137.32
135.453
133.263
130.745
127.896
124.714
121.199
117.352
113.177
108.679
103.865
98.742
93.322
87.617
81.639
75.406
68.933
62.239
55.344
48.269
41.038
33.674
26.203
18.651
11.044
3.409
-4.224
-11.829
-19.38
-26.848
-34.208
-41.433
-48.5
-55.385
-62.067
-68.523
-74.734
-80.679
-86.346
-91.722
-96.796
-101.56
-106.004
-110.114
-113.895
-117.352
-120.467
-123.231
-125.634
-127.666
-129.348
-130.718
-131.762
-132.466
-132.901
-133.124
-133.183
-133.147
-132.989
-132.638
-132.162
-131.666
-130.939
-129.73
-128.219
-126.41
-124.269
-122.397
-119.242
-113.296
-106.755
-100.295
-97.938
-104.491
-114.661
-124.923
-130.02
-122.727
-109.454
-95.634
-84.993
-83.68
-87.308
-91.43
-95.061
-95.491
-94.297
-93.507
-92.736
-92.243
-91.894
-91.278
-90.664
-90.267
-90.014
-89.888
-89.913
-90.08
-90.37
-90.774
-91.246
-91.738
-92.263
-92.837
-93.447
-94.09
-94.761
-95.45
-96.16
-96.89
-97.632
-98.379
-99.126
-99.868
-100.6
-101.32
-102.022
-102.702
-103.357
-103.982
-104.571
-105.121
-105.625
-106.076
-106.468
-106.794
-107.048
-107.224
-107.315
-107.317
-107.223
-107.03
-106.733
-106.326
-105.806
-105.168
-104.406
-103.517
-102.5
-101.352
-100.074
-98.667
-97.133
-95.475
-93.697
-91.803
-89.793
-87.67
-85.435
-83.093
-80.652
-78.123
-75.522
-72.865
-70.17
-67.459
-64.75
-62.064
-59.416
-56.816
-54.271
-51.791
-49.388
-47.08
-44.885
-42.813
-40.869
-39.051
-37.355
-35.775
-34.307
-32.938
-31.661
-30.469
-29.362
-28.356
-27.47
-26.73
-26.158
-25.748
-25.494
-25.402
-25.504
-25.866
-26.541
-27.515
-28.739
-30.126
-31.578
-33.082
-34.579
-35.895
-36.992
-37.914
-38.822
-40.234
-42.58
-45.801
-49.776
-54.288
-58.64
-62.222
-64.246
-63.131
-57.786
-48.269
-34.958
-18.962
-2.346
13.322
26.317
33.918
34.545
28.311
15.641
-1.704
-20.402
-38.551
-54.46
-64.672
-69.933
-72.918
-72.578
-71.478
-66.382
-48.069
-20.445
10.179
29.121
15.065
-28.329
-81.658
-112.279
-84.004
9.924
152.653
310.879
448.542
549.342
613.173
648.841
666.87
669.738
651.189
606.816
533.88
433.062
317.728
199.942
91.288
4.659
-61.031
-108.54
-141.21
-166.149
-181.405
-185.719
-180.839
-167.558
-151.999
-139.046
-129.597
-124.402
-122.481
-122.24
-123.246
-124.43
-123.783
-120.256
-113.521
-103.637
-91.439
-77.77
-63.088
-48.028
-33.425
-19.753
-7.306
3.754
13.579
22.267
29.865
36.544
42.463
47.722
52.442
56.734
60.684
64.416
67.982
71.337
74.452
77.304
79.916
82.361
84.704
87.017
89.357
91.756
94.251
96.862
99.579
102.373
105.214
108.077
110.993
114.046
117.302
120.816
124.605
128.646
132.895
137.279
141.721
146.147
150.504
154.758
158.894
162.911
166.8
170.555
174.153
177.55
180.703
183.571
186.122
188.336
190.226
191.834
193.209
194.405
195.451
196.355
197.117
197.719
198.159
198.449
198.601
198.637
198.553
198.306
197.894
197.343
196.669
195.876
194.824
193.245
191.123
188.697
186.255
184.106
182.168
179.973
177.503
175.155
172.814
169.864
165.224
157.533
146.837
134.39
120.655
105.804
90.701
76.273
64.885
58.019
52.824
48.139
45.143
47.829
64.956
94.974
126.171
145.799
138.865
106.101
62.969
21.487
-6.14
-17.475
-21.316
-21.759
-22.061
-24.196
-25.558
-25.72
-25.617
-25.211
-25.329
-26.816
-29.371
-32.522
-35.913
-38.724
-40.081
-40.137
-39.41
-37.787
-36.124
-34.272
-28.954
-20.449
-12.23
-8.125
-18.374
-47.508
-85.089
-117.588
-125.498
-93.013
-30.31
39.019
88.507
92.07
48.375
-18.677
-82.144
-116.389
-109.056
-74.079
-32.241
0.786
13.104
8.215
-2.315
-12.853
-19.076
-20.526
-21.383
-22.73
-24.187
-25.964
-27.356
-28.135
-28.898
-29.842
-30.926
-32.276
-33.939
-35.829
-37.906
-40.123
-42.367
-44.603
-46.859
-49.117
-51.358
-53.58
-55.77
-57.924
-60.046
-62.132
-64.168
-66.144
-68.055
-69.897
-71.668
-73.366
-74.986
-76.52
-77.967
-79.33
-80.615
-81.829
-82.976
-84.06
-85.086
-86.064
-87.01
-87.938
-88.851
-89.75
-90.637
-91.516
-92.397
-93.289
-94.183
-95.067
-95.925
-96.748
-97.543
-98.314
-99.053
-99.758
-100.409
-100.984
-101.443
-101.728
-101.827
-101.754
-101.54
-101.231
-100.83
-100.364
-100.1
-100.374
-101.22
-102.571
-104.163
-105.639
-107.231
-109.151
-110.687
-111.158
-110.788
-109.977
-109.989
-110.676
-108.238
-100.295
-88.749
-81.547
-90.426
-120.259
-163.117
-199.415
-208.256
-181.551
-128.499
-70.005
-26.565
-6.003
-1.601
-3.609
-6.267
-11.028
-28.769
-61.946
-100.911
-134.041
-144.327
-128.36
-100.361
-72.84
-59.442
-63.746
-75.363
-87.659
-96.364
-100.558
-105.008
-111.588
-119.515
-128.297
-137.03
-145.618
-154.701
-164.265
-173.571
-181.696
-188.162
-192.856
-195.665
-196.4
-194.751
-190.525
-184.473
-178.299
-173.179
-169.397
-166.458
-163.242
-159.068
-153.472
-144.812
-130.058
-106.353
-72.052
-27.41
25.664
85.637
151.155
219.231
284.928
342.251
385.824
412.559
421.33
410.848
379.497
327.322
256.976
173.507
82.759
-10.718
-103.535
-191.657
-269.591
-332.355
-377.244
-403.851
-413.472
-407.317
-385.992
-351.349
-307.727
-260.304
-213.448
-170.604
-133.58
-103.834
-83.507
-73.515
-72.652
-78.632
-88.633
-99.671
-109.84
-117.496
-120.729
-118.688
-111.621
-100.486
-87.068
-73.437
-61.412
-52.874
-48.945
-49.804
-55.223
-63.809
-73.65
-83.385
-90.745
-94.739
-97.5
-98.059
-94.326
-83.045
-56.391
-16.418
26.337
60.519
71.386
58.758
35.762
13.508
4.326
8.171
14.462
20.404
22.993
25.812
37.655
53.846
70.151
80.963
77.95
67.875
57.027
49.431
51.565
58.91
66.842
74.323
78.436
80.735
83.218
85.409
87.599
89.651
91.134
92.368
93.582
94.672
95.715
96.898
98.311
99.998
101.93
103.939
105.925
107.975
109.799
110.678
110.433
109.302
107.289
104.926
101.178
93.028
81.611
70.216
64.031
72.423
95.813
127.19
157.69
171.403
160.035
126.168
75.985
25.983
-6.414
-13.265
6.462
42.439
76.402
95.754
95.997
80.842
61.096
44.619
33.782
27.5
21.776
14.722
6.892
-1.154
-7.796
-13.762
-22.67
-33.77
-44.594
-49.044
-34.311
0.504
45.495
82.549
81.872
32.498
-54.635
-151.302
-212.149
-212.359
-152.452
-56.903
28.801
76.847
79.495
46.749
5.773
-29.31
-58.28
-82.764
-108.336
-132.449
-141.182
-126.99
-90.517
-36.262
21.245
65.108
85.505
72.827
24.621
-44.013
-112.455
-156.849
-157.697
-118.552
-57.911
0.564
36.919
46.963
38.299
22.945
9.508
0.482
-4.9
-9.593
-14.97
-20.285
-24.891
-27.865
-28.307
-26.652
-24.008
-20.978
-18.083
-15.63
-13.45
-11.643
-10.64
-10.445
-10.722
-11.256
-11.785
-12.192
-12.634
-13.14
-13.618
-14.063
-14.493
-14.932
-15.442
-16.032
-16.639
-17.223
-17.758
-18.228
-18.648
-19.023
-19.348
-19.619
-19.83
-19.975
-20.053
-20.063
-20.004
-19.875
-19.674
-19.4
-19.056
-18.65
-18.186
-17.668
-17.09
-16.451
-15.747
-14.981
-14.155
-13.27
-12.329
-11.336
-10.295
-9.214
-8.101
-6.964
-5.814
-4.662
-3.516
-2.387
-1.285
-0.219
0.803
1.775
2.691
3.547
4.337
5.057
5.697
6.244
6.69
7.025
7.242
7.338
7.306
7.142
6.848
6.425
5.878
5.204
4.387
3.412
2.271
0.965
-0.494
-2.082
-3.771
-5.529
-7.3
-9.03
-10.661
-12.133
-13.424
-14.526
-15.432
-16.125
-16.565
-16.709
-16.551
-16.109
-15.396
-14.453
-13.332
-12.105
-10.915
-9.896
-9.163
-8.839
-9.015
-9.753
-11.096
-13.058
-15.594
-18.699
-22.428
-26.708
-31.318
-35.831
-39.694
-42.495
-44.13
-44.522
-43.208
-39.869
-34.62
-28.24
-22.165
-17.365
-13.577
-10.007
-6.561
-3.191
0.8
7.469
20.575
43.19
74.562
111.073
150.418
192.39
241.36
302.86
374.735
446.289
499.745
518.301
492.515
425.606
331.962
223.151
113.692
16.383
-64.831
-119.718
-146.537
-155.34
-151.502
-144.901
-141.166
-134.594
-123.604
-108.802
-91.373
-76.472
-66.816
-61.8
-60.376
-61.153
-62.678
-63.651
-63.332
-61.186
-57.03
-51.446
-44.99
-37.996
-31
-24.559
-18.951
-14.372
-10.832
-8.06
-5.857
-4.055
-2.419
-0.761
1.088
3.254
5.788
8.716
12.055
15.813
19.99
24.574
29.527
34.818
40.406
46.237
52.259
58.409
64.61
70.8
76.905
82.866
88.643
94.202
99.518
104.578
109.37
113.888
118.138
122.125
125.848
129.317
132.532
135.5
138.234
140.745
143.049
145.159
147.085
148.835
150.417
151.837
153.102
154.215
155.178
155.992
156.663
157.195
157.594
157.865
158.01
158.031
157.931
157.711
157.371
156.908
156.322
155.609
154.767
153.794
152.687
151.443
150.061
148.536
146.865
145.046
143.076
140.952
138.671
136.231
133.63
130.868
127.944
124.858
121.612
118.208
114.648
110.936
107.077
103.077
98.943
94.683
90.306
85.823
81.244
76.583
71.853
67.066
62.239
57.385
52.52
47.658
42.816
38.009
33.251
28.556
23.94
19.416
14.997
10.694
6.521
2.488
-1.395
-5.119
-8.675
-12.055
-15.254
-18.265
-21.084
-23.709
-26.136
-28.366
-30.399
-32.237
-33.882
-35.34
-36.615
-37.714
-38.643
-39.411
-40.025
-40.495
-40.83
-41.041
-41.136
-41.127
-41.024
-40.836
-40.574
-40.246
-39.863
-39.432
-38.964
-38.465
-37.945
-37.411
-36.872
-36.333
-35.803
-35.288
-34.794
-34.326
-33.889
-33.487
-33.123
-32.802
-32.524
-32.293
-32.108
-31.972
-31.886
-31.848
-31.859
-31.917
-32.022
-32.172
-32.366
-32.601
-32.876
-33.19
-33.541
-33.928
-34.35
-34.805
-35.292
-35.809
-36.353
-36.921
-37.511
-38.118
-38.74
-39.372
-40.011
-40.653
-41.295
-41.933
-42.564
-43.183
-43.788
-44.374
-44.938
-45.474
-45.98
-46.45
-46.882
-47.272
-47.62
-47.922
-48.178
-48.384
-48.541
-48.645
-48.695
-48.691
-48.629
-48.511
-48.334
-48.103
-47.818
-47.485
-47.111
-46.703
-46.269
-45.819
-45.36
-44.9
-44.446
-44.003
-43.577
-43.173
-42.797
-42.454
-42.155
-41.911
-41.737
-41.644
-41.642
-41.736
-41.933
-42.239
-42.652
-43.172
-43.798
-44.531
-45.386
-46.378
-47.517
-48.806
-50.243
-51.805
-53.468
-55.202
-56.955
-58.679
-60.328
-61.849
-63.223
-64.444
-65.503
-66.388
-67.073
-67.521
-67.722
-67.692
-67.427
-66.956
-66.333
-65.609
-64.917
-64.377
-64.056
-64.06
-64.462
-65.307
-66.682
-68.613
-71.022
-73.908
-77.298
-81.059
-85.051
-88.861
-91.742
-93.235
-93.122
-91.238
-87.509
-81.851
-74.336
-65.826
-57.997
-52.037
-48.248
-46.095
-44.571
-43.03
-40.605
-35.302
-23.791
-2.942
28.506
69.811
119.035
174.437
234.054
294.614
350.75
396.326
427.216
441.44
438.494
418.068
379.733
324.581
256.481
180.983
102.741
25.525
-47.676
-113.712
-168.457
-209.179
-235.661
-249.185
-251.266
-243.539
-227.543
-205.617
-181.542
-158.158
-136.813
-118.168
-102.344
-89.361
-79.333
-71.601
-64.535
-57.103
-48.966
-40.093
-30.931
-21.864
-13.097
-5.171
1.078
5.167
6.947
6.53
4.37
0.914
-3.471
-8.366
-13.346
-18.09
-22.369
-26.05
-29.1
-31.466
-33.058
-33.77
-33.48
-32.113
-29.649
-26.123
-21.625
-16.3
-10.344
-3.946
2.72
9.521
16.376
23.227
30.044
36.804
43.491
50.071
56.496
62.72
68.699
74.414
79.866
85.079
90.101
94.976
99.744
104.43
109.042
113.575
118.015
122.335
126.504
130.493
134.281
137.857
141.212
144.337
147.217
149.836
152.175
154.215
155.939
157.329
158.37
159.051
159.365
159.309
158.888
158.102
156.955
155.451
153.59
151.378
148.819
145.918
142.681
139.114
135.228
131.034
126.547
121.782
116.755
111.486
105.992
100.295
94.415
88.374
82.193
75.894
69.499
63.031
56.512
49.964
43.411
36.874
30.375
23.936
17.577
11.317
5.175
-0.832
-6.69
-12.383
-17.898
-23.222
-28.345
-33.257
-37.947
-42.409
-46.637
-50.627
-54.375
-57.883
-61.149
-64.177
-66.971
-69.535
-71.876
-74.001
-75.918
-77.638
-79.169
-80.523
-81.713
-82.75
-83.649
-84.421
-85.082
-85.643
-86.12
-86.523
-86.867
-87.162
-87.42
-87.652
-87.868
-88.078
-88.291
-88.514
-88.755
-89.02
-89.316
-89.645
-90.013
-90.422
-90.874
-91.37
-91.911
-92.497
-93.128
-93.801
-94.517
-95.271
-96.06
-96.88
-97.728
-98.597
-99.482
-100.377
-101.276
-102.173
-103.063
-103.938
-104.793
-105.623
-106.422
-107.185
-107.908
-108.586
-109.215
-109.792
-110.315
-110.78
-111.187
-111.535
-111.823
-112.051
-112.219
-112.326
-112.374
-112.361
-112.288
-112.154
-111.958
-111.702
-111.384
-111.006
-110.568
-110.072
-109.518
-108.909
-108.245
-107.528
-106.759
-105.941
-105.074
-104.159
-103.199
-102.194
-101.147
-100.059
-98.934
-97.772
-96.576
-95.345
-94.082
-92.787
-91.46
-90.103
-88.716
-87.3
-85.858
-84.396
-82.92
-81.439
-79.96
-78.493
-77.048
-75.633
-74.258
-72.93
-71.653
-70.43
-69.267
-68.169
-67.144
-66.201
-65.346
-64.585
-63.926
-63.372
-62.925
-62.59
-62.366
-62.251
-62.243
-62.347
-62.576
-62.95
-63.487
-64.194
-65.068
-66.102
-67.285
-68.602
-70.026
-71.518
-73.029
-74.513
-75.922
-77.224
-78.398
-79.416
-80.232
-80.785
-81.018
-80.92
-80.521
-79.85
-78.934
-77.784
-76.414
-74.916
-73.439
-72.133
-71.166
-70.662
-70.662
-71.259
-72.627
-74.813
-77.743
-81.105
-84.302
-86.799
-88.31
-88.647
-87.651
-85.452
-82.351
-79.024
-76.708
-76.55
-79.344
-85.298
-93.94
-103.937
-113.48
-120.503
-122.215
-115.709
-98.269
-68.063
-24.796
30.121
94.28
164.975
238.275
309.334
372.7
423
456.448
471.048
465.636
439.576
394.073
332.058
258.125
178.208
97.553
20.622
-47.912
-103.899
-144.924
-170.146
-180.633
-179.224
-168.74
-152.143
-133.21
-115.276
-100.554
-90.406
-84.921
-83.113
-84.021
-86.416
-88.553
-89.152
-87.553
-83.476
-77.24
-69.511
-60.829
-51.839
-43.341
-35.801
-29.441
-24.343
-20.345
-17.245
-14.911
-13.153
-11.733
-10.504
-9.325
-8.048
-6.609
-4.921
-2.892
-0.483
2.341
5.604
9.296
13.394
17.874
22.69
27.798
33.167
38.751
44.505
50.375
56.288
62.193
68.05
73.827
79.507
85.073
90.512
95.826
101.028
106.129
111.138
116.059
120.889
125.629
130.286
134.864
139.37
143.805
148.166
152.449
156.646
160.752
164.754
168.638
172.383
175.973
179.392
182.625
185.659
188.479
191.067
193.411
195.497
197.312
198.842
200.073
200.993
201.589
201.851
201.772
201.342
200.555
199.407
197.893
196.011
193.763
191.148
188.17
184.833
181.143
177.111
172.747
168.064
163.076
157.801
152.256
146.462
140.442
134.217
127.811
121.251
114.562
107.77
100.903
93.986
87.046
80.11
73.204
66.352
59.581
52.913
46.371
39.977
33.751
27.711
21.876
16.26
10.878
5.742
0.864
-3.749
-8.088
-12.149
-15.928
-19.423
-22.634
-25.564
-28.214
-30.591
-32.702
-34.553
-36.155
-37.517
-38.652
-39.571
-40.288
-40.815
-41.166
-41.356
-41.396
-41.302
-41.087
-40.764
-40.347
-39.846
-39.276
-38.646
-37.969
-37.252
-36.507
-35.742
-34.963
-34.178
-33.394
-32.615
-31.847
-31.094
-30.359
-29.646
-28.957
-28.293
-27.658
-27.052
-26.475
-25.929
-25.414
-24.93
-24.476
-24.054
-23.663
-23.304
-22.975
-22.679
-22.413
-22.18
-21.979
-21.81
-21.674
-21.571
-21.503
-21.471
-21.474
-21.516
-21.596
-21.718
-21.882
-22.091
-22.344
-22.645
-22.993
-23.388
-23.832
-24.322
-24.857
-25.434
-26.053
-26.708
-27.397
-28.115
-28.855
-29.614
-30.385
-31.162
-31.936
-32.701
-33.45
-34.175
-34.87
-35.525
-36.135
-36.691
-37.188
-37.62
-37.98
-38.264
-38.465
-38.577
-38.597
-38.521
-38.345
-38.068
-37.685
-37.199
-36.613
-35.931
-35.162
-34.312
-33.388
-32.403
-31.367
-30.291
-29.186
-28.058
-26.917
-25.775
-24.648
-23.551
-22.499
-21.505
-20.583
-19.749
-19.012
-18.383
-17.868
-17.466
-17.184
-17.033
-17.026
-17.191
-17.543
-18.092
-18.844
-19.797
-20.94
-22.259
-23.723
-25.29
-26.923
-28.592
-30.268
-31.931
-33.545
-35.065
-36.45
-37.643
-38.596
-39.273
-39.652
-39.747
-39.599
-39.261
-38.796
-38.273
-37.767
-37.384
-37.233
-37.429
-38.104
-39.335
-41.245
-44.023
-47.681
-52.103
-57.003
-61.796
-65.98
-69.234
-71.064
-71.054
-69.295
-66.105
-62.31
-59.308
-57.937
-58.724
-62.424
-69.079
-77.811
-87.156
-94.526
-96.82
-91.84
-77.361
-50.888
-11.221
41.704
106.578
180.169
258.873
339.273
416.667
485.478
540.738
577.98
594.399
589.063
561.075
510.442
439.735
353.396
256.913
156.536
57.691
-34.847
-115.502
-179.562
-224.842
-251.215
-260.334
-255.153
-238.595
-213.843
-185.368
-157.505
-132.974
-113.186
-98.327
-87.733
-80.793
-76.741
-73.943
-70.649
-65.966
-59.606
-51.84
-43.311
-34.437
-25.574
-17.353
-10.445
-5.187
-1.648
0.374
1.255
1.261
0.627
-0.376
-1.448
-2.287
-2.69
-2.561
-1.872
-0.614
1.232
3.692
6.765
10.402
14.548
19.139
24.119
29.444
35.049
40.861
46.799
52.769
58.708
64.581
70.359
76.028
81.579
87.001
92.295
97.48
102.569
107.566
112.476
117.292
122.015
126.65
131.2
135.668
140.052
144.344
148.533
152.612
156.567
160.383
164.042
167.525
170.812
173.889
176.743
179.359
181.725
183.827
185.652
187.191
188.431
189.362
189.971
190.249
190.187
189.777
189.015
187.895
186.414
184.572
182.367
179.803
176.884
173.613
169.998
166.047
161.771
157.18
152.289
147.111
141.663
135.962
130.025
123.874
117.527
111.007
104.333
97.53
90.62
83.626
76.573
69.484
62.383
55.294
48.241
41.248
34.338
27.533
20.854
14.323
7.958
1.779
-4.199
-9.958
-15.486
-20.769
-25.796
-30.558
-35.048
-39.26
-43.189
-46.832
-50.189
-53.26
-56.046
-58.552
-60.78
-62.736
-64.429
-65.865
-67.055
-68.007
-68.735
-69.249
-69.563
-69.691
-69.646
-69.443
-69.097
-68.624
-68.038
-67.356
-66.593
-65.764
-64.884
-63.968
-63.031
-62.085
-61.143
-60.218
-59.319
-58.458
-57.643
-56.882
-56.184
-55.554
-54.999
-54.525
-54.135
-53.833
-53.621
-53.503
-53.477
-53.546
-53.708
-53.962
-54.307
-54.74
-55.257
-55.856
-56.532
-57.28
-58.095
-58.97
-59.899
-60.875
-61.891
-62.939
-64.013
-65.106
-66.21
-67.32
-68.429
-69.532
-70.623
-71.696
-72.745
-73.765
-74.75
-75.696
-76.597
-77.447
-78.244
-78.982
-79.659
-80.27
-80.813
-81.285
-81.681
-82.001
-82.241
-82.4
-82.475
-82.465
-82.371
-82.194
-81.935
-81.596
-81.18
-80.688
-80.125
-79.494
-78.797
-78.038
-77.22
-76.346
-75.42
-74.449
-73.44
-72.399
-71.339
-70.268
-69.195
-68.132
-67.088
-66.069
-65.085
-64.14
-63.239
-62.385
-61.587
-60.851
-60.189
-59.61
-59.119
-58.722
-58.422
-58.222
-58.129
-58.144
-58.262
-58.481
-58.801
-59.236
-59.81
-60.541
-61.427
-62.46
-63.625
-64.91
-66.306
-67.791
-69.317
-70.83
-72.271
-73.598
-74.8
-75.871
-76.78
-77.476
-77.89
-77.98
-77.766
-77.297
-76.597
-75.682
-74.556
-73.232
-71.84
-70.554
-69.538
-68.959
-68.912
-69.39
-70.47
-72.333
-75.003
-78.372
-82.108
-85.525
-88.099
-89.745
-90.388
-89.952
-88.625
-86.473
-83.907
-82.256
-82.668
-85.506
-90.762
-97.622
-104.476
-110.332
-113.887
-112.406
-103.243
-84.252
-53.796
-12.259
38.463
97.19
161.987
228.913
293.575
350.723
394.791
422.528
431.998
420.695
387.727
334.605
264.072
181.26
92.892
4.408
-78.809
-150.568
-206.609
-244.739
-264.108
-266.475
-255.391
-234.118
-206.754
-178.393
-152.561
-131.474
-116.54
-107.521
-103.311
-102.94
-104.732
-106.375
-106.562
-104.69
-100.529
-94.592
-87.47
-79.547
-71.51
-64.221
-58.119
-53.382
-49.997
-47.643
-46.089
-45.202
-44.751
-44.504
-44.272
-43.855
-43.135
-42.087
-40.669
-38.85
-36.613
-33.924
-30.783
-27.229
-23.304
-19.053
-14.516
-9.722
-4.71
0.471
5.763
11.099
16.43
21.728
26.97
32.141
37.229
42.22
47.114
51.927
56.669
61.349
65.968
70.521
75.01
79.44
83.815
88.141
92.415
96.632
100.789
104.878
108.891
112.817
116.642
120.346
123.913
127.329
130.579
133.65
136.527
139.196
141.644
143.861
145.836
147.555
149.01
150.187
151.079
151.675
151.969
151.952
151.618
150.963
149.983
148.678
147.046
145.088
142.804
140.199
137.276
134.04
130.496
126.65
122.512
118.094
113.408
108.468
103.291
97.896
92.307
86.544
80.629
74.585
68.431
62.189
55.878
49.515
43.117
36.699
30.283
23.888
17.539
11.259
5.071
-1.001
-6.934
-12.706
-18.298
-23.695
-28.894
-33.886
-38.659
-43.197
-47.475
-51.477
-55.202
-58.644
-61.801
-64.68
-67.299
-69.698
-71.943
-74.083
-76.146
-78.147
-80.079
-81.937
-83.722
-85.426
-87.033
-88.518
-89.852
-91.02
-92.034
-92.876
-93.498
-93.805
-93.649
-92.933
-91.609
-89.646
-87.04
-83.787
-79.898
-75.45
-70.587
-65.449
-60.162
-54.819
