ecg_data_columns
35.216
99.708
203.075
318.823
421.795
487.377
497.428
455.879
369.906
248.928
111.277
-31.414
-163.419
-262.537
-320.677
-336.326
-318.777
-291.356
-267.245
-251.689
-243.91
-233.951
-218.609
-200.099
-180.777
-165.327
-155.211
-148.602
-144.12
-140.09
-134.838
-127.976
-119.479
-109.339
-98.111
-86.394
-74.592
-63.25
-52.975
-44.067
-36.677
-30.875
-26.473
-23.298
-21.219
-19.993
-19.354
-19.02
-18.714
-18.258
-17.565
-16.566
-15.214
-13.466
-11.272
-8.618
-5.484
-1.813
2.419
7.234
12.63
18.54
24.869
31.487
38.234
44.984
51.65
58.161
64.474
70.562
76.393
81.958
87.247
92.225
96.861
101.128
104.996
108.465
111.551
114.278
116.692
118.832
120.724
122.384
123.822
125.034
126.018
126.764
127.257
127.494
127.474
127.199
126.679
125.916
124.914
123.673
122.193
120.47
118.505
116.304
113.87
111.215
108.349
105.287
102.048
98.649
95.106
91.437
87.656
83.778
79.818
75.793
71.716
67.603
63.472
59.338
55.218
51.13
47.089
43.113
39.217
35.414
31.721
28.149
24.71
21.416
18.276
15.299
12.492
9.86
7.408
5.139
3.055
1.156
-0.558
-2.091
-3.446
-4.627
-5.641
-6.493
-7.193
-7.748
-8.167
-8.459
-8.636
-8.707
-8.684
-8.578
-8.402
-8.168
-7.888
-7.575
-7.241
-6.898
-6.559
-6.235
-5.936
-5.674
-5.457
-5.294
-5.19
-5.153
-5.185
-5.291
-5.474
-5.735
-6.075
-6.492
-6.987
-7.558
-8.201
-8.913
-9.688
-10.521
-11.407
-12.338
-13.307
-14.306
-15.328
-16.365
-17.411
-18.458
-19.5
-20.529
-21.538
-22.52
-23.468
-24.376
-25.24
-26.053
-26.811
-27.512
-28.157
-28.748
-29.287
-29.778
-30.224
-30.631
-31.004
-31.348
-31.665
-31.956
-32.226
-32.48
-32.723
-32.965
-33.214
-33.478
-33.767
-34.091
-34.456
-34.867
-35.325
-35.828
-36.376
-36.972
-37.622
-38.343
-39.148
-40.045
-41.04
-42.135
-43.321
-44.586
-45.907
-47.247
-48.579
-49.876
-51.113
-52.282
-53.361
-54.338
-55.201
-55.917
-56.455
-56.792
-56.911
-56.829
-56.587
-56.219
-55.77
-55.299
-54.867
-54.575
-54.512
-54.729
-55.285
-56.184
-57.478
-59.344
-61.822
-64.822
-68.17
-71.49
-74.436
-76.825
-78.228
-78.041
-76.146
-72.725
-68.248
-63.694
-59.86
-57.477
-57.825
-62.13
-69.338
-76.634
-81.577
-82.108
-80.371
-80.894
-82.581
-80.076
-64.099
-23.535
43.974
133.481
236.709
340.264
432.698
503.221
539.306
535.96
493.379
418.945
328.827
234.533
143.688
59.949
-19.547
-93.96
-159.439
-212.48
-248.794
-267.491
-271.108
-262.438
-244.665
-220.872
-193.441
-165.226
-138.706
-115.221
-95.616
-80.059
-68.218
-60.063
-55.664
-54.242
-54.976
-57.105
-59.494
-61.623
-63.41
-64.356
-63.909
-62.04
-58.807
-54.593
-50.27
-46.219
-42.465
-39.178
-36.462
-34.283
-32.624
-31.239
-29.635
-27.568
-24.967
-21.786
-18.087
-13.906
-9.237
-4.158
1.203
6.754
12.423
18.156
23.939
29.719
35.44
41.06
46.536
51.842
56.969
61.904
66.644
71.191
75.541
79.691
83.635
87.365
90.876
94.164
97.223
100.053
102.653
105.022
107.163
109.077
110.761
112.213
113.428
114.401
115.13
115.619
115.868
115.883
115.67
115.234
114.583
113.726
112.67
111.425
109.996
108.392
106.623
104.699
102.632
100.432
98.112
95.685
93.163
90.56
87.889
85.165
82.4
79.608
76.802
73.997
71.204
68.438
65.71
63.031
60.413
57.867
55.403
53.029
50.754
48.586
46.533
44.601
42.795
41.121
39.583
38.184
36.926
35.811
34.84
34.014
33.331
32.789
32.388
32.122
31.99
31.986
32.104
32.338
32.682
33.129
33.669
34.296
35.002
35.777
36.614
37.506
38.443
39.418
40.424
41.452
42.494
43.543
44.592
45.632
46.659
47.665
48.645
49.595
50.511
51.389
52.227
53.022
53.772
54.476
55.132
55.741
56.301
56.814
57.281
57.704
58.087
58.433
58.744
59.023
59.275
59.503
59.709
59.896
60.067
60.222
60.366
60.501
60.63
60.756
60.879
61.003
61.13
61.261
61.396
61.534
61.67
61.802
61.926
62.039
62.137
62.215
62.27
62.301
62.307
62.29
62.245
62.171
62.062
61.914
61.722
61.481
61.185
60.83
60.415
59.94
59.412
58.834
58.202
57.515
56.758
55.92
54.996
53.981
52.873
51.688
50.442
49.164
47.902
46.692
45.57
44.569
43.71
43.017
42.515
42.224
42.173
42.392
42.9
43.707
44.802
46.127
47.613
49.173
50.691
52.075
53.217
53.986
54.284
53.993
53.02
51.337
48.862
45.477
41.192
36.117
30.549
25.03
20.018
15.857
13.03
11.916
12.631
15.124
18.737
22.356
25.171
26.471
25.582
22.455
17.553
11.76
7.199
6.56
12.012
26.075
51.171
88.424
138.234
198.76
265.01
332.067
396.246
456.298
512.733
562.77
599.856
613.504
593.255
536.829
446.869
330.543
201.315
70.732
-47.054
-134.008
-182.934
-195.147
-178.576
-150.962
-122.902
-94.251
-66.301
-37.842
-10.543
4.324
3.891
-8.742
-30.001
-45.888
-49.389
-40.545
-17.649
10.83
38.987
65.265
84.111
96
101.703
99.524
92.761
83.342
70.173
55.15
37.228
15.329
-3.705
-15.771
-17.067
-3.332
18.984
43.868
67.075
82.671
92.208
97.901
100.278
101.748
102.171
101.335
100.258
99.218
98.908
99.925
102.16
105.395
109.252
113.201
116.971
120.475
123.676
126.633
129.378
131.91
134.282
136.559
138.776
140.934
142.992
144.889
146.595
148.106
149.424
150.561
151.51
152.259
152.796
153.116
153.215
153.095
152.756
152.202
151.435
150.464
149.297
147.946
146.416
144.711
142.831
140.772
138.537
136.129
133.554
130.817
127.927
124.889
121.711
118.403
114.975
111.437
107.799
104.07
100.262
96.388
92.46
88.492
84.499
80.493
76.49
72.501
68.542
64.627
60.768
56.979
53.272
49.66
46.155
42.767
39.507
36.384
33.407
30.583
27.921
25.425
23.101
20.952
18.98
17.185
15.568
14.127
12.859
11.759
10.823
10.044
9.416
8.93
8.577
8.348
8.233
8.22
8.297
8.453
8.674
8.948
9.26
9.599
9.951
10.303
10.643
10.959
11.241
11.478
11.662
11.781
11.83
11.802
11.69
11.491
11.199
10.814
10.334
9.76
9.092
8.333
7.486
6.554
5.544
4.461
3.31
2.1
0.835
-0.474
-1.82
-3.194
-4.587
-5.988
-7.388
-8.78
-10.151
-11.494
-12.801
-14.065
-15.285
-16.454
-17.57
-18.63
-19.634
-20.58
-21.469
-22.298
-23.063
-23.764
-24.401
-24.978
-25.5
-25.973
-26.399
-26.786
-27.142
-27.473
-27.786
-28.082
-28.36
-28.624
-28.882
-29.149
-29.447
-29.792
-30.192
-30.659
-31.196
-31.799
-32.463
-33.169
-33.882
-34.576
-35.231
-35.829
-36.366
-36.825
-37.18
-37.41
-37.48
-37.365
-37.052
-36.538
-35.841
-35.007
-34.09
-33.157
-32.295
-31.585
-31.127
-31.021
-31.339
-32.172
-33.568
-35.604
-38.43
-42.074
-46.444
-51.325
-56.287
-60.934
-65.061
-68.317
-70.205
-70.59
-69.539
-67.519
-65.634
-64.632
-64.775
-66.531
-70.346
-76.035
-83.034
-89.872
-94.003
-93.553
-87.049
-72.632
-48.552
-13.319
32.556
85.565
141.625
197.185
252.955
314.127
380.917
448.372
504.188
528.642
510.802
450.366
354.843
239.899
119.306
1.75
-103.099
-184.506
-236.258
-255.867
-248.81
-229.371
-207.403
-188.044
-172.134
-155.081
-136.137
-117.401
-100.743
-89.035
-82.707
-80.107
-79.911
-80.308
-79.639
-77.393
-73.414
-67.831
-61.224
-54.109
-46.891
-40.125
-34.346
-29.776
-26.449
-24.22
-22.796
-21.955
-21.508
-21.251
-20.985
-20.518
-19.714
-18.51
-16.89
-14.85
-12.387
-9.491
-6.162
-2.439
1.634
6.001
10.611
15.424
20.39
25.453
30.549
35.604
40.56
45.384
50.046
54.527
58.814
62.89
66.747
70.395
73.836
77.075
80.112
82.94
85.557
87.967
90.176
92.189
94.007
95.63
97.055
98.282
99.311
100.137
100.758
101.166
101.357
101.33
101.087
100.628
99.955
99.069
97.974
96.674
95.174
93.478
91.59
89.515
87.258
84.826
82.228
79.471
76.564
73.515
70.336
67.037
63.63
60.126
56.536
52.873
49.149
45.377
41.569
37.738
33.897
30.059
26.236
22.444
18.693
14.998
11.371
7.824
4.369
1.017
-2.221
-5.337
-8.319
-11.161
-13.855
-16.393
-18.769
-20.978
-23.016
-24.879
-26.566
-28.076
-29.409
-30.566
-31.55
-32.364
-33.013
-33.501
-33.835
-34.02
-34.065
-33.977
-33.765
-33.44
-33.011
-32.491
-31.89
-31.222
-30.499
-29.734
-28.939
-28.125
-27.305
-26.49
-25.691
-24.918
-24.181
-23.489
-22.853
-22.279
-21.777
-21.351
-21.008
-20.752
-20.586
-20.513
-20.535
-20.652
-20.864
-21.172
-21.573
-22.068
-22.655
-23.329
-24.088
-24.925
-25.835
-26.812
-27.847
-28.931
-30.057
-31.217
-32.404
-33.615
-34.844
-36.086
-37.337
-38.593
-39.85
-41.104
-42.345
-43.566
-44.759
-45.917
-47.039
-48.121
-49.16
-50.152
-51.096
-51.991
-52.836
-53.627
-54.358
-55.022
-55.617
-56.146
-56.62
-57.055
-57.468
-57.87
-58.268
-58.671
-59.08
-59.494
-59.896
-60.259
-60.556
-60.763
-60.86
-60.828
-60.641
-60.273
-59.693
-58.867
-57.767
-56.378
-54.71
-52.781
-50.632
-48.308
-45.856
-43.366
-40.962
-38.777
-36.959
-35.661
-34.99
-35.091
-36.184
-38.336
-41.494
-45.478
-49.811
-54.044
-57.912
-61
-62.835
-63.397
-62.885
-61.89
-61.765
-63.545
-67.778
-75.233
-86.298
-100.301
-116.069
-131.437
-142.911
-147.568
-142.945
-126.216
-95.542
-50.66
7.663
76.879
152.539
230.234
305.088
371.229
423.511
457.96
471.677
463.568
434.357
385.585
320.336
243.417
160.055
75.535
-5.209
-78.015
-139.502
-187.125
-219.808
-237.955
-243.083
-237.574
-223.941
-204.773
-182.816
-160.438
-139.49
-121.399
-106.646
-94.929
-85.963
-79.304
-74.303
-70.599
-67.615
-64.409
-60.657
-56.49
-51.921
-47.118
-42.164
-36.79
-31.166
-25.936
-21.364
-17.512
-14.394
-11.774
-9.587
-8.006
-6.878
-5.817
-4.579
-2.958
-0.876
1.561
4.346
7.549
11.141
15.05
19.192
23.457
27.79
32.179
36.586
40.958
45.227
49.32
53.2
56.844
60.238
63.375
66.245
68.843
71.181
73.267
75.108
76.709
78.07
79.19
80.075
80.729
81.162
81.383
81.397
81.208
80.818
80.229
79.442
78.455
77.267
75.875
74.284
72.495
70.514
68.345
65.994
63.468
60.772
57.913
54.897
51.73
48.417
44.966
41.385
37.681
33.864
29.941
25.923
21.819
17.64
13.397
9.101
4.762
0.392
-3.998
-8.395
-12.788
-17.165
-21.514
-25.823
-30.08
-34.273
-38.389
-42.418
-46.349
-50.17
-53.871
-57.444
-60.878
-64.165
-67.298
-70.27
-73.073
-75.702
-78.153
-80.422
-82.505
-84.4
-86.108
-87.627
-88.96
-90.109
-91.077
-91.869
-92.488
-92.943
-93.239
-93.384
-93.388
-93.261
-93.011
-92.651
-92.191
-91.644
-91.022
-90.336
-89.6
-88.825
-88.023
-87.206
-86.387
-85.577
-84.787
-84.027
-83.309
-82.64
-82.029
-81.485
-81.012
-80.617
-80.304
-80.078
-79.941
-79.896
-79.943
-80.083
-80.317
-80.643
-81.06
-81.565
-82.153
-82.82
-83.562
-84.372
-85.243
-86.17
-87.147
-88.168
-89.231
-90.33
-91.462
-92.621
-93.806
-95.01
-96.229
-97.457
-98.683
-99.9
-101.104
-102.289
-103.454
-104.594
-105.707
-106.789
-107.84
-108.858
-109.839
-110.776
-111.66
-112.488
-113.26
-113.982
-114.673
-115.346
-116.012
-116.678
-117.353
-118.035
-118.723
-119.405
-120.051
-120.638
-121.145
-121.556
-121.864
-122.054
-122.11
-122.008
-121.714
-121.195
-120.433
-119.43
-118.199
-116.769
-115.171
-113.434
-111.641
-109.901
-108.324
-107.009
-106.047
-105.5
-105.471
-106.177
-107.718
-110.046
-113.035
-116.357
-119.633
-122.608
-124.901
-125.926
-125.441
-123.677
-121.06
-118.488
-117.22
-118.336
-122.849
-132.021
-145.088
-158.764
-171.548
-182.268
-190.943
-201.138
-208.834
-203.912
-177.902
-122.174
-39.882
54.524
149.234
235.511
311.616
380.247
438.215
475.516
479.311
441.07
360.714
247.958
119.296
-8.31
-118.378
-199.604
-248.594
-268.888
-271.647
-267.712
-262.896
-258.11
-249.131
-233.563
-213.307
-192.123
-174.423
-162.211
-154.813
-150.908
-149.12
-148.336
-147.614
-145.872
-142.466
-137.397
-130.993
-123.8
-116.298
-108.844
-101.881
-95.884
-91.091
-87.503
-84.972
-83.238
-82.09
-81.366
-80.858
-80.343
-79.626
-78.56
-77.077
-75.158
-72.782
-69.931
-66.6
-62.792
-58.54
-53.893
-48.893
-43.585
-38.016
-32.239
-26.319
-20.329
-14.347
-8.434
-2.634
3.02
8.503
13.793
18.873
23.732
28.373
32.793
36.988
40.951
44.673
48.147
51.37
54.344
57.069
59.542
61.758
63.712
65.401
66.818
67.959
68.818
69.387
69.662
69.644
69.334
68.736
67.853
66.691
65.255
63.555
61.597
59.391
56.946
54.271
51.377
48.278
44.986
41.515
37.88
34.097
30.18
26.147
22.015
17.799
13.518
9.189
4.829
0.457
-3.91
-8.254
-12.557
-16.804
-20.976
-25.059
-29.037
-32.897
-36.625
-40.209
-43.638
-46.901
-49.988
-52.891
-55.602
-58.114
-60.421
-62.519
-64.404
-66.074
-67.529
-68.767
-69.792
-70.604
-71.207
-71.607
-71.807
-71.814
-71.636
-71.281
-70.759
-70.08
-69.256
-68.298
-67.219
-66.033
-64.752
-63.391
-61.961
-60.477
-58.95
-57.394
-55.82
-54.241
-52.667
-51.112
-49.584
-48.096
-46.655
-45.271
-43.95
-42.699
-41.523
-40.428
-39.417
-38.492
-37.656
-36.91
-36.255
-35.692
-35.22
-34.837
-34.54
-34.327
-34.191
-34.129
-34.134
-34.199
-34.317
-34.482
-34.689
-34.932
-35.208
-35.513
-35.843
-36.195
-36.564
-36.948
-37.341
-37.736
-38.124
-38.5
-38.86
-39.199
-39.518
-39.814
-40.085
-40.33
-40.55
-40.74
-40.899
-41.02
-41.095
-41.122
-41.1
-41.038
-40.952
-40.856
-40.759
-40.665
-40.576
-40.49
-40.402
-40.297
-40.145
-39.925
-39.612
-39.191
-38.658
-38.004
-37.215
-36.272
-35.137
-33.776
-32.185
-30.38
-28.377
-26.211
-23.908
-21.497
-19.067
-16.72
-14.563
-12.705
-11.228
-10.183
-9.663
-9.827
-10.761
-12.445
-14.683
-17.034
-19.079
-20.543
-21.108
-20.375
-18.143
-14.468
-9.856
-5.523
-2.658
-2.03
-4.354
-10.178
-19.445
-31.499
-44.799
-56.423
-63.323
-63.026
-52.895
-30.515
5.566
55.894
118.226
187.131
257.616
325.731
390.737
454.396
513.885
561.945
586.636
573.737
517.743
423.258
301.904
172.834
53.581
-46.023
-119.001
-166.091
-194.36
-208.259
-212.942
-210.661
-198.305
-175.296
-143.069
-105.008
-67.068
-33.057
-4.708
17.375
33.522
43.508
47.473
46.702
42.799
37.375
31.956
27.257
23.72
22.194
23.04
26.019
30.693
36.248
41.743
46.8
51.264
54.834
57.491
59.357
60.555
61.492
62.65
64.234
66.341
69.027
72.216
75.874
79.999
84.486
89.223
94.139
99.167
104.269
109.434
114.607
119.739
124.791
129.723
134.513
139.154
143.637
147.958
152.118
156.11
159.927
163.565
167.01
170.255
173.292
176.114
178.721
181.111
183.282
185.234
186.964
188.466
189.733
190.758
191.532
192.05
192.312
192.315
192.063
191.559
190.805
189.807
188.571
187.103
185.407
183.49
181.357
179.017
176.48
173.757
170.859
167.799
164.59
161.247
157.784
154.217
150.56
146.828
143.037
139.201
135.337
131.46
127.585
123.727
119.902
116.122
112.403
108.757
105.196
101.732
98.376
95.138
92.028
89.054
86.225
83.547
81.028
78.673
76.486
74.471
72.63
70.965
69.476
68.162
67.022
66.053
65.252
64.614
64.135
63.809
63.63
63.59
63.682
63.897
64.227
64.663
65.197
65.818
66.519
67.291
68.124
69.011
69.943
70.91
71.906
72.923
73.952
74.986
76.02
77.047
78.061
79.059
80.037
80.99
81.917
82.813
83.679
84.513
85.312
86.077
86.808
87.504
88.167
88.798
89.4
89.973
90.519
91.041
91.542
92.022
92.482
92.922
93.339
93.735
94.11
94.461
94.787
95.089
95.366
95.621
95.858
96.076
96.275
96.454
96.609
96.741
96.847
96.923
96.967
96.977
96.955
96.906
96.836
96.742
96.622
96.464
96.259
96.003
95.694
95.331
94.922
94.478
94.023
93.593
93.219
92.925
92.735
92.657
92.707
92.907
93.273
93.828
94.595
95.586
96.812
98.27
99.915
101.689
103.519
105.306
106.981
108.471
109.676
110.515
110.914
110.815
110.212
109.052
107.201
104.621
101.388
97.746
94.127
90.864
88.178
86.477
86.241
87.693
90.844
95.085
99.376
103.203
105.976
106.665
104.747
100.067
93.918
90.097
90.877
96.672
106.345
116.328
128.415
147.868
180.144
232.636
304.603
390.452
484.386
574.057
648.514
697.467
706.978
671.596
593.842
481.887
355.492
234.127
129.821
51.24
-4.195
-44.97
-75.275
-99.872
-118.7
-126.857
-123.732
-110.167
-89.157
-66.923
-47.491
-32.512
-22.633
-17.113
-15.041
-15.838
-18.498
-21.652
-24.101
-25.236
-24.991
-23.632
-21.603
-19.271
-16.989
-15.239
-14.458
-14.807
-16.231
-18.534
-21.435
-24.693
-28.106
-31.444
-34.466
-37.005
-38.964
-40.3
-41.02
-41.127
-40.621
-39.514
-37.836
-35.632
-32.955
-29.86
-26.396
-22.622
-18.61
-14.433
-10.174
-5.896
-1.644
2.547
6.652
10.649
14.521
18.254
21.846
25.293
28.585
31.712
34.661
37.422
39.989
42.358
44.525
46.485
48.227
49.744
51.026
52.065
52.852
53.376
53.626
53.595
53.278
52.673
51.78
50.601
49.136
47.389
45.365
43.072
40.514
37.699
34.635
31.332
27.801
24.056
20.111
15.981
11.682
7.232
2.65
-2.045
-6.834
-11.697
-16.615
-21.566
-26.532
-31.491
-36.425
-41.314
-46.138
-50.88
-55.52
-60.042
-64.429
-68.667
-72.741
-76.639
-80.348
-83.859
-87.163
-90.251
-93.117
-95.755
-98.162
-100.336
-102.275
-103.982
-105.459
-106.711
-107.744
-108.566
-109.186
-109.614
-109.861
-109.94
-109.864
-109.646
-109.301
-108.846
-108.294
-107.663
-106.97
-106.231
-105.463
-104.681
-103.902
-103.139
-102.407
-101.721
-101.094
-100.537
-100.063
-99.683
-99.407
-99.244
-99.201
-99.284
-99.499
-99.848
-100.333
-100.956
-101.714
-102.606
-103.629
-104.781
-106.058
-107.454
-108.965
-110.583
-112.301
-114.111
-116.006
-117.977
-120.012
-122.102
-124.241
-126.42
-128.635
-130.88
-133.149
-135.439
-137.744
-140.061
-142.385
-144.708
-147.021
-149.315
-151.586
-153.83
-156.044
-158.226
-160.376
-162.495
-164.585
-166.646
-168.678
-170.677
-172.635
-174.55
-176.421
-178.252
-180.061
-181.858
-183.653
-185.455
-187.266
-189.082
-190.895
-192.683
-194.415
-196.066
-197.607
-199.013
-200.273
-201.366
-202.282
-203.011
-203.521
-203.785
-203.785
-203.515
-203.008
-202.316
-201.479
-200.55
-199.59
-198.668
-197.917
-197.443
-197.319
-197.636
-198.406
-199.705
-201.748
-204.589
-208.111
-212.114
-216.163
-219.825
-222.915
-225.039
-225.614
-224.541
-222.036
-218.619
-215.294
-213.098
-212.932
-215.638
-222.088
-231.104
-239.225
-244.814
-246.972
-246.302
-246.973
-245.883
-233.48
-203.082
-147.27
-68.045
19.992
107.894
190.512
263.348
328.886
381.966
405.765
389.943
329.061
226.168
103.482
-17.295
-121.986
-199.341
-253.171
-292.72
-321.828
-345.659
-363.383
-369.283
-362.201
-341.876
-310.954
-276.089
-242.075
-211.731
-186.676
-166.815
-152.268
-143.864
-141.253
-142.937
-146.882
-150.976
-154.077
-155.891
-156.028
-153.819
-149.047
-142.07
-133.823
-125.584
-118.024
-111.257
-105.371
-100.483
-96.651
-93.816
-91.607
-89.421
-86.894
-83.9
-80.412
-76.476
-72.094
-67.23
-61.922
-56.281
-50.4
-44.343
-38.137
-31.786
-25.316
-18.79
-12.284
-5.865
0.423
6.552
12.505
18.268
23.825
29.163
34.279
39.167
43.822
48.237
52.399
56.295
59.918
63.268
66.348
69.164
71.713
73.993
75.999
77.726
79.17
80.327
81.19
81.755
82.022
81.994
81.674
81.069
80.185
79.029
77.609
75.934
74.014
71.859
69.479
66.886
64.094
61.118
57.971
54.671
51.234
47.676
44.016
40.271
36.458
32.597
28.703
24.795
20.89
17.005
13.156
9.36
5.633
1.988
-1.559
-4.994
-8.305
-11.481
-14.51
-17.383
-20.092
-22.629
-24.989
-27.168
-29.161
-30.968
-32.586
-34.016
-35.259
-36.317
-37.193
-37.893
-38.421
-38.783
-38.989
-39.045
-38.962
-38.748
-38.414
-37.97
-37.427
-36.796
-36.087
-35.313
-34.484
-33.61
-32.702
-31.77
-30.826
-29.88
-28.94
-28.016
-27.116
-26.247
-25.417
-24.63
-23.892
-23.206
-22.576
-22.005
-21.494
-21.043
-20.654
-20.326
-20.058
-19.848
-19.695
-19.595
-19.546
-19.542
-19.581
-19.659
-19.771
-19.914
-20.084
-20.277
-20.492
-20.726
-20.981
-21.253
-21.542
-21.849
-22.173
-22.513
-22.87
-23.237
-23.614
-23.998
-24.388
-24.786
-25.191
-25.608
-26.038
-26.489
-26.963
-27.463
-27.988
-28.533
-29.096
-29.677
-30.279
-30.914
-31.589
-32.312
-33.09
-33.93
-34.825
-35.761
-36.709
-37.626
-38.477
-39.233
-39.869
-40.372
-40.724
-40.911
-40.924
-40.746
-40.359
-39.744
-38.889
-37.794
-36.499
-35.077
-33.616
-32.238
-31.052
-30.129
-29.542
-29.34
-29.55
-30.232
-31.452
-33.234
-35.642
-38.815
-42.794
-47.554
-52.902
-58.296
-63.098
-66.75
-68.718
-68.487
-65.71
-60.428
-53.282
-45.709
-39.681
-35.727
-32.545
-29.271
-25.081
-23.052
-30.499
-48.974
-74.375
-93.977
-86.745
-42.688
35.9
136.643
237.554
327.511
406.281
474.827
535.278
579.218
591.314
562.426
489.999
382.783
257.12
128.894
13.675
-78.735
-144.843
-186.372
-211.995
-229.781
-243.551
-253.032
-252.973
-239.882
-215.02
-182.299
-147.536
-114.567
-84.765
-59.139
-38.327
-23.237
-14.453
-11.348
-12.554
-16.869
-23.025
-29.549
-35.28
-39.001
-39.831
-37.717
-33.06
-26.359
-18.387
-10.101
-2.134
4.968
10.845
15.557
19.297
22.311
24.997
27.797
30.955
34.615
38.829
43.513
48.599
54.026
59.687
65.477
71.331
77.197
83.042
88.844
94.55
100.099
105.449
110.56
115.408
119.984
124.276
128.283
132.008
135.457
138.627
141.514
144.111
146.41
148.408
150.107
151.514
152.635
153.475
154.043
154.344
154.384
154.163
153.683
152.942
151.942
150.688
149.187
147.447
145.477
143.284
140.88
138.275
135.48
132.502
129.353
126.04
122.575
118.969
115.233
111.378
107.418
103.363
99.228
95.023
90.763
86.46
82.126
77.774
73.417
69.067
64.737
60.437
56.18
51.976
47.837
43.774
39.796
35.914
32.136
28.473
24.932
21.521
18.247
15.117
12.134
9.304
6.631
4.118
1.767
-0.421
-2.444
-4.302
-5.998
-7.533
-8.91
-10.132
-11.205
-12.133
-12.924
-13.583
-14.119
-14.538
-14.85
-15.064
-15.187
-15.229
-15.199
-15.106
-14.96
-14.771
-14.548
-14.301
-14.038
-13.769
-13.503
-13.247
-13.009
-12.794
-12.61
-12.46
-12.35
-12.283
-12.263
-12.29
-12.367
-12.493
-12.669
-12.894
-13.167
-13.485
-13.845
-14.243
-14.676
-15.142
-15.635
-16.15
-16.684
-17.233
-17.798
-18.376
-18.965
-19.563
-20.169
-20.782
-21.402
-22.025
-22.647
-23.263
-23.871
-24.469
-25.059
-25.642
-26.22
-26.794
-27.369
-27.949
-28.535
-29.129
-29.726
-30.322
-30.922
-31.534
-32.174
-32.855
-33.583
-34.363
-35.198
-36.082
-37.005
-37.942
-38.858
-39.725
-40.525
-41.241
-41.868
-42.396
-42.802
-43.069
-43.177
-43.102
-42.836
-42.371
-41.716
-40.923
-40.063
-39.219
-38.489
-37.933
-37.609
-37.601
-37.976
-38.807
-40.179
-42.109
-44.651
-47.955
-52.031
-56.758
-61.874
-66.821
-71.076
-74.336
-76.144
-75.977
-73.758
-69.663
-64.326
-59.137
-55.154
-52.957
-53.434
-57.231
-64.025
-72.962
-82.154
-88.474
-89.508
-83.152
-66.407
-36.801
6.751
62.907
127.229
194.593
261.767
329.646
399.988
469.691
531.043
569.828
570.94
528.318
443.289
326.112
193.715
62.652
-50.655
-134.741
-185.617
-206.9
-210.32
-206.529
-201.814
-197.653
-189.432
-175.017
-156.484
-136.792
-120.134
-108.507
-100.937
-96.005
-92.254
-88.125
-82.35
-74.262
-63.638
-50.829
-36.623
-21.749
-6.769
7.689
20.913
32.446
42.008
49.496
55.074
58.922
61.181
62.049
61.772
60.582
58.78
56.718
54.624
52.674
51.01
49.692
48.817
48.497
48.809
49.821
51.571
54.051
57.256
61.18
65.758
70.894
76.439
82.186
87.985
93.738
99.371
104.847
110.121
115.139
119.872
124.304
128.415
132.191
135.612
138.649
141.302
143.59
145.55
147.243
148.707
149.962
151.023
151.893
152.572
153.061
153.35
153.42
153.261
152.87
152.245
151.393
150.317
149.012
147.475
145.701
143.685
141.428
138.932
136.199
133.238
130.057
126.668
123.089
119.336
115.421
111.361
107.167
102.853
98.433
93.922
89.332
84.68
79.98
75.247
70.5
65.755
61.029
56.338
51.699
47.128
42.641
38.252
33.977
29.828
25.819
21.961
18.264
14.739
11.394
8.236
5.272
2.508
-0.054
-2.411
-4.563
-6.508
-8.25
-9.79
-11.132
-12.28
-13.239
-14.015
-14.614
-15.044
-15.311
-15.424
-15.392
-15.225
-14.934
-14.53
-14.024
-13.427
-12.753
-12.012
-11.217
-10.38
-9.511
-8.621
-7.72
-6.819
-5.926
-5.05
-4.199
-3.378
-2.596
-1.857
-1.167
-0.529
0.053
0.578
1.043
1.446
1.787
2.064
2.278
2.427
2.512
2.529
2.477
2.356
2.167
1.909
1.581
1.186
0.725
0.204
-0.373
-1.002
-1.679
-2.403
-3.17
-3.978
-4.827
-5.72
-6.658
-7.643
-8.671
-9.733
-10.827
-11.95
-13.102
-14.291
-15.516
-16.774
-18.07
-19.406
-20.778
-22.175
-23.567
-24.911
-26.174
-27.33
-28.358
-29.251
-29.988
-30.551
-30.938
-31.144
-31.171
-31.031
-30.71
-30.205
-29.544
-28.778
-27.998
-27.324
-26.846
-26.632
-26.743
-27.227
-28.154
-29.589
-31.569
-34.104
-37.173
-40.796
-45.063
-49.95
-55.272
-60.652
-65.48
-69.166
-71.29
-71.422
-69.197
-64.603
-57.951
-50.117
-42.596
-36.761
-33.698
-34.18
-38.24
-45.181
-53.692
-61.454
-65.193
-61.59
-47.487
-20.208
19.905
69.986
127.268
187.553
249.922
318.131
390.091
460.617
518.965
543.566
521.692
451.155
337.703
205.699
79.027
-28.165
-104.85
-155.506
-191.259
-217.194
-239.433
-257.476
-264.612
-258.816
-239.338
-208.342
-172.244
-135.345
-99.832
-67.329
-38.464
-14.484
2.819
12.96
16.583
14.796
8.828
-0.263
-11.273
-22.424
-31.881
-38.564
-42.095
-42.643
-40.665
-36.559
-30.94
-24.8
-19.014
-14.083
-10.198
-7.225
-4.917
-3.103
-1.528
0.188
2.289
4.887
7.997
11.503
15.292
19.308
23.475
27.703
31.935
36.124
40.237
44.277
48.24
52.108
55.869
59.509
63.02
66.406
69.671
72.815
75.834
78.72
81.463
84.055
86.485
88.747
90.837
92.746
94.47
96.005
97.348
98.497
99.446
100.188
100.715
101.017
101.091
100.934
100.546
99.924
99.068
97.98
96.661
95.113
93.339
91.341
89.12
86.68
84.026
81.165
78.105
74.853
71.42
67.816
64.052
60.14
56.092
51.92
47.637
43.256
38.79
34.255
29.662
25.029
20.367
15.694
11.023
6.369
1.746
-2.831
-7.35
-11.797
-16.16
-20.428
-24.589
-28.633
-32.551
-36.333
-39.972
-43.46
-46.792
-49.962
-52.968
-55.807
-58.477
-60.979
-63.313
-65.48
-67.482
-69.322
-71.005
-72.532
-73.909
-75.141
-76.233
-77.194
-78.029
-78.746
-79.353
-79.858
-80.271
-80.598
-80.848
-81.029
-81.149
-81.214
-81.232
-81.21
-81.154
-81.07
-80.965
-80.843
-80.71
-80.57
-80.427
-80.284
-80.144
-80.009
-79.881
-79.764
-79.658
-79.566
-79.489
-79.43
-79.395
-79.387
-79.407
-79.459
-79.547
-79.672
-79.837
-80.04
-80.28
-80.554
-80.864
-81.208
-81.587
-82.001
-82.454
-82.95
-83.492
-84.082
-84.721
-85.407
-86.133
-86.898
-87.7
-88.54
-89.426
-90.362
-91.35
-92.395
-93.493
-94.636
-95.802
-96.96
-98.069
-99.1
-100.024
-100.818
-101.465
-101.946
-102.252
-102.379
-102.31
-102.035
-101.541
-100.823
-99.893
-98.798
-97.6
-96.381
-95.242
-94.262
-93.504
-93.042
-92.944
-93.27
-94.071
-95.376
-97.175
-99.523
-102.499
-106.047
-110.006
-114.033
-117.595
-120.242
-121.61
-121.236
-118.782
-114.274
-107.913
-100.46
-93.156
-86.929
-82.689
-81.299
-82.832
-86.694
-91.979
-96.723
-98.255
-94.235
-81.745
-57.824
-22.462
21.94
73.047
127.197
184.456
249.665
321.193
392.458
451.072
477.614
462.031
405.767
316.112
206.281
88.37
-30.011
-138.243
-221.785
-271.643
-284.769
-267.982
-239.121
-211.499
-191.471
-179.307
-168.568
-156.049
-142.435
-129.46
-120.199
-115.125
-112.611
-111.043
-108.41
-103.769
-97.238
-88.957
-79.403
-69.191
-58.779
-48.747
-39.74
-32.057
-25.764
-20.811
-16.951
-13.966
-11.703
-9.935
-8.445
-7.053
-5.57
-3.867
-1.891
0.411
3.07
6.097
9.513
13.313
17.454
21.891
26.571
31.444
36.472
41.603
46.777
51.927
56.971
61.852
66.531
70.978
75.174
79.104
82.754
86.123
89.224
92.068
94.661
97.007
99.101
100.946
102.549
103.917
105.059
105.981
106.681
107.16
107.422
107.464
107.286
106.884
106.251
105.384
104.282
102.947
101.382
99.588
97.569
95.328
92.87
90.203
87.329
84.256
80.988
77.533
73.897
70.091
66.122
62
57.737
53.344
48.833
44.218
39.511
34.727
29.881
24.987
20.062
15.121
10.181
5.257
0.366
-4.476
-9.252
-13.946
-18.543
-23.027
-27.384
-31.601
-35.666
-39.565
-43.29
-46.832
-50.181
-53.331
-56.275
-59.009
-61.527
-63.828
-65.91
-67.772
-69.417
-70.846
-72.064
-73.078
-73.893
-74.519
-74.964
-75.238
-75.353
-75.32
-75.151
-74.86
-74.46
-73.966
-73.392
-72.754
-72.066
-71.346
-70.606
-69.86
-69.123
-68.407
-67.724
-67.084
-66.496
-65.971
-65.516
-65.139
-64.849
-64.653
-64.554
-64.559
-64.67
-64.889
-65.219
-65.657
-66.202
-66.851
-67.602
-68.451
-69.395
-70.431
-71.555
-72.766
-74.06
-75.435
-76.884
-78.401
-79.978
-81.608
-83.281
-84.987
-86.716
-88.459
-90.212
-91.971
-93.734
-95.496
-97.25
-98.989
-100.706
-102.397
-104.054
-105.662
-107.214
-108.708
-110.152
-111.568
-112.971
-114.363
-115.745
-117.114
-118.465
-119.796
-121.085
-122.29
-123.377
-124.311
-125.075
-125.691
-126.156
-126.458
-126.574
-126.455
-126.083
-125.49
-124.685
-123.667
-122.446
-121.006
-119.414
-117.824
-116.35
-115.103
-114.172
-113.552
-113.329
-113.671
-114.6
-116.073
-117.958
-119.926
-121.716
-123.138
-123.83
-123.501
-122.13
-119.881
-117.222
-114.753
-113.27
-113.934
-117.637
-124.865
-134.445
-143.248
-149.748
-153.43
-155.059
-157.492
-158.262
-151.839
-132.664
-93.074
-31.473
48.745
140.983
232.449
307.884
351.634
354.645
316.752
247.746
166.298
85.819
13.398
-49.434
-108.23
-164.276
-214.016
-253.829
-279.592
-290.381
-288.623
-277.03
-258.347
-235.426
-211.142
-188.236
-168.35
-151.954
-139.155
-129.7
-123.07
-118.632
-115.415
-112.214
-108.666
-105.062
-101.205
-97.086
-92.949
-88.805
-84.889
-81.621
-78.809
-76.023
-73.423
-71.009
-68.643
-66.399
-64.093
-61.513
-58.78
-56.007
-53.044
-49.817
-46.272
-42.298
-37.972
-33.366
-28.457
-23.271
-17.869
-12.312
-6.689
-1.089
4.452
9.906
15.25
20.47
25.545
30.461
35.214
39.803
44.231
48.495
52.589
56.512
60.258
63.828
67.225
70.453
73.515
76.414
79.15
81.718
84.119
86.351
88.413
90.301
92.011
93.538
94.883
96.047
97.034
97.846
98.486
98.958
99.267
99.417
99.414
99.263
98.967
98.531
97.963
97.27
96.459
95.54
94.524
93.418
92.235
90.986
89.682
88.334
86.954
85.552
84.14
82.729
81.332
79.959
78.622
77.332
76.099
74.935
73.848
72.848
71.944
71.142
70.45
69.874
69.42
69.093
68.897
68.836
68.912
69.128
69.486
69.985
70.626
71.406
72.323
73.374
74.553
75.856
77.276
78.805
80.437
82.162
83.973
85.861
87.815
89.826
91.885
93.982
96.108
98.252
100.405
102.556
104.698
106.821
108.917
110.98
113
114.973
116.892
118.753
120.55
122.28
123.937
125.517
127.017
128.435
129.768
131.014
132.173
133.245
134.233
135.138
135.964
136.712
137.385
137.986
138.517
138.979
139.372
139.695
139.95
140.139
140.265
140.333
140.344
140.306
140.224
140.106
139.954
139.773
139.563
139.324
139.062
138.78
138.487
138.186
137.883
137.584
137.301
137.039
136.795
136.559
136.306
136.025
135.711
135.362
134.977
134.56
134.111
133.657
133.238
132.889
132.646
132.518
132.497
132.598
132.846
133.28
133.949
134.857
135.985
137.333
138.911
140.733
142.793
144.991
147.174
149.212
150.994
152.48
153.611
154.219
154.195
153.531
152.376
151.075
149.915
149.038
148.719
149.319
150.932
153.51
156.479
158.775
159.8
158.829
154.647
146.636
134.737
120.376
107.574
98.99
95.379
96.149
98.417
104.174
118.616
147.061
196.705
267.4
354.713
453.166
549.743
632.218
688.063
702.581
670.896
593.891
479.378
346.206
213.195
99.933
21.296
-21.28
-34.059
-31.118
-26.217
-23.665
-21.918
-15.03
1.199
24.584
50.111
72.632
89.448
100.697
107.551
111.29
112.818
113.244
113.948
115.733
118.821
123.008
127.778
132.709
137.494
141.666
144.705
146.356
146.602
145.611
143.676
141.046
137.904
134.466
130.955
127.524
124.277
121.268
118.492
115.961
113.689
111.673
109.907
108.372
107.034
105.856
104.805
103.835
102.896
101.938
100.902
99.748
98.454
97.002
95.387
93.609
91.666
89.567
87.321
84.937
82.423
79.784
77.022
74.141
71.149
68.053
64.863
61.583
58.217
54.764
51.225
47.598
43.88
40.07
36.159
32.147
28.031
23.812
19.492
15.073
10.555
5.941
1.235
-3.561
-8.443
-13.408
-18.453
-23.571
-28.755
-33.999
-39.292
-44.624
-49.983
-55.356
-60.731
-66.091
-71.422
-76.709
-81.936
-87.087
-92.146
-97.098
-101.926
-106.616
-111.154
-115.525
-119.714
-123.71
-127.499
-131.071
-134.414
-137.519
-140.375
-142.974
-145.309
-147.374
-149.162
-150.668
-151.889
-152.824
-153.471
-153.831
-153.906
-153.702
-153.223
-152.478
-151.476
-150.227
-148.745
-147.04
-145.128
-143.023
-140.739
-138.293
-135.699
-132.974
-130.135
-127.197
-124.177
-121.092
-117.957
-114.79
-111.606
-108.421
-105.25
-102.108
-99.009
-95.968
-92.998
-90.113
-87.326
-84.65
-82.096
-79.675
-77.395
-75.265
-73.292
-71.48
-69.833
-68.354
-67.043
-65.904
-64.937
-64.145
-63.529
-63.09
-62.831
-62.75
-62.848
-63.122
-63.566
-64.176
-64.944
-65.862
-66.926
-68.127
-69.458
-70.913
-72.485
-74.164
-75.943
-77.808
-79.749
-81.752
-83.804
-85.894
-88.013
-90.159
-92.34
-94.56
-96.816
-99.103
-101.414
-103.737
-106.058
-108.353
-110.584
-112.709
-114.69
-116.493
-118.094
-119.475
-120.612
-121.472
-122.011
-122.204
-122.063
-121.603
-120.84
-119.79
-118.46
-116.901
-115.249
-113.644
-112.223
-111.125
-110.421
-110.217
-110.696
-111.917
-113.845
-116.318
-118.933
-121.339
-123.404
-124.874
-125.401
-124.985
-123.698
-121.922
-120.707
-120.786
-122.44
-126.156
-132.232
-140.218
-149.395
-158.346
-164.544
-165.885
-160.726
-147.265
-123.983
-90.093
-45.836
7.552
66.343
125.136
180.772
230.798
274.442
314.546
347.435
364.329
357.356
316.546
243.308
150.988
51.662
-41.247
-121.16
-190.603
-249.218
-296.135
-330.726
-350.538
-355.919
-349.562
-333.937
-312.119
-287.708
-263.624
-241.354
-221.109
-202.566
-185.257
-169.172
-154.556
-140.892
-127.385
-114.29
-102.775
-93.814
-88.029
-85.282
-84.65
-85.723
-88.551
-92.572
-96.722
-100.167
-102.287
-103.065
-103.266
-103.296
-103.143
-102.964
-102.957
-103.26
-104.018
-105.06
-105.835
-105.981
-105.356
-103.889
-101.672
-98.796
-95.315
-91.397
-87.261
-83.075
-78.973
-75.019
-71.202
-67.524
-64
-60.639
-57.483
-54.573
-51.933
-49.585
-47.534
-45.771
-44.28
-43.023
-41.963
-41.064
-40.299
-39.659
-39.147
-38.769
-38.537
-38.464
-38.555
-38.811
-39.237
-39.828
-40.585
-41.508
-42.6
-43.866
-45.311
-46.941
-48.76
-50.768
-52.963
-55.342
-57.9
-60.625
-63.51
-66.543
-69.716
-73.019
-76.443
-79.976
-83.609
-87.331
-91.13
-94.994
-98.909
-102.863
-106.838
-110.822
-114.798
-118.753
-122.671
-126.537
-130.337
-134.055
-137.679
-141.195
-144.59
-147.85
-150.962
-153.915
-156.696
-159.296
-161.702
-163.907
-165.901
-167.677
-169.23
-170.554
-171.647
-172.506
-173.13
-173.518
-173.67
-173.588
-173.274
-172.731
-171.964
-170.979
-169.782
-168.381
-166.785
-165.003
-163.046
-160.923
-158.645
-156.224
-153.67
-150.995
-148.21
-145.328
-142.36
-139.319
-136.216
-133.066
-129.879
-126.669
-123.445
-120.219
-117.001
-113.802
-110.63
-107.493
-104.4
-101.36
-98.38
-95.469
-92.636
-89.89
-87.236
-84.682
-82.235
-79.899
-77.676
-75.568
-73.573
-71.693
-69.927
-68.276
-66.74
-65.32
-64.019
-62.841
-61.791
-60.869
-60.074
-59.404
-58.85
-58.41
-58.079
-57.857
-57.748
-57.753
-57.872
-58.106
-58.452
-58.896
-59.419
-59.984
-60.549
-61.076
-61.529
-61.878
-62.109
-62.205
-62.163
-61.977
-61.633
-61.129
-60.464
-59.643
-58.683
-57.611
-56.467
-55.331
-54.308
-53.498
-52.994
-52.853
-53.113
-53.821
-55.009
-56.713
-58.963
-61.705
-64.881
-68.485
-72.409
-76.476
-80.414
-83.66
-85.631
-86.044
-84.669
-81.336
-76.161
-69.31
-61.229
-53.082
-46.092
-40.856
-37.569
-35.953
-35.161
-34.304
-32.053
-25.993
-13.377
7.74
38.323
78.19
126.001
179.919
237.25
293.759
344.152
383.384
407.384
413.268
399.649
366.324
314.534
247.519
170.315
88.633
8.165
-65.433
-127.289
-173.603
-201.922
-211.764
-204.338
-181.684
-146.729
-103.578
-56.671
-10.321
31.725
67.231
94.935
113.799
123.782
126.137
122.771
116.183
108.856
102.141
96.926
94.25
94.495
97.4
102.396
108.281
113.798
118.489
122.138
124.473
125.53
125.412
124.269
122.63
121.061
119.801
118.986
118.674
118.84
119.567
120.92
122.815
125.119
127.684
130.391
133.197
136.067
138.935
141.739
144.425
146.963
149.371
151.66
153.823
155.84
157.666
159.273
160.658
161.831
162.818
163.641
164.309
164.838
165.255
165.577
165.819
165.978
166.036
165.977
165.796
165.489
165.056
164.498
163.81
162.989
162.031
160.933
159.694
158.309
156.772
155.079
153.227
151.217
149.055
146.745
144.292
141.7
138.975
136.124
133.153
130.067
126.871
123.572
120.177
116.693
113.128
109.493
105.795
102.044
98.251
94.425
90.577
86.716
82.852
78.994
75.151
71.332
67.545
63.799
60.101
56.458
52.879
49.37
45.938
42.588
39.325
36.155
33.08
30.104
27.229
24.457
21.788
19.225
16.768
14.417
12.172
10.033
7.999
6.069
4.241
2.515
0.887
-0.644
-2.081
-3.424
-4.677
-5.84
-6.915
-7.904
-8.808
-9.627
-10.364
-11.018
-11.591
-12.083
-12.495
-12.827
-13.081
-13.257
-13.355
-13.376
-13.321
-13.188
-12.98
-12.696
-12.339
-11.909
-11.408
-10.839
-10.206
-9.515
-8.77
-7.979
-7.148
-6.283
-5.392
-4.482
-3.557
-2.622
-1.682
-0.742
0.192
1.111
2.006
2.866
3.682
4.445
5.149
5.787
6.356
6.858
7.293
7.66
7.956
8.166
8.275
8.277
8.167
7.944
7.625
7.224
6.763
6.279
5.804
5.369
5
4.708
4.493
4.359
4.314
4.384
4.603
4.985
5.532
6.231
7.046
7.94
8.859
9.718
10.448
10.975
11.22
11.137
10.68
9.815
8.55
6.828
4.544
1.727
-1.494
-4.821
-7.722
-9.749
-10.571
-9.769
-7.044
-2.42
3.861
10.946
17.407
22.026
23.786
21.967
16.682
8.691
-0.821
-9.513
-14.237
-12.038
0.016
24.005
60.159
107.597
164.571
227.568
291.954
352.712
404.092
441.026
460.441
460.344
439.701
399.437
341.992
271.04
191.86
109.975
29.975
-43.815
-107.262
-157.488
-193.094
-214.124
-222.212
-219.729
-209.001
-192.674
-173.926
-155.592
-139.426
-126.177
-115.741
-107.554
-101.096
-95.715
-90.267
-83.596
-75.216
-65.172
-53.868
-41.916
-29.752
-17.712
-6.357
3.714
12.122
18.652
23.332
26.376
27.941
28.179
27.313
25.596
23.347
20.926
18.566
16.411
14.571
13.098
12.079
11.622
11.802
12.689
14.327
16.713
19.848
23.722
28.27
33.398
38.958
44.75
50.628
56.498
62.289
67.969
73.496
78.818
83.905
88.736
93.288
97.545
101.486
105.08
108.329
111.249
113.875
116.27
118.472
120.5
122.37
124.083
125.638
127.035
128.265
129.309
130.158
130.807
131.257
131.514
131.581
131.455
131.133
130.607
129.873
128.932
127.786
126.436
124.89
123.156
121.245
119.176
116.964
114.623
112.168
109.611
106.966
104.248
101.471
98.649
95.796
92.928
90.061
87.211
84.394
81.628
78.927
76.306
73.78
71.362
69.063
66.895
64.867
62.989
61.268
59.711
58.323
57.11
56.075
55.22
54.546
54.052
53.736
53.593
53.618
53.804
54.144
54.629
55.251
55.998
56.862
57.83
58.893
60.037
61.25
62.518
63.828
65.168
66.523
67.882
69.231
70.56
71.858
73.116
74.324
75.474
76.558
77.571
78.506
79.358
80.123
80.797
81.378
81.864
82.256
82.555
82.762
82.879
82.909
82.855
82.723
82.515
82.235
81.885
81.467
80.985
80.442
79.838
79.178
78.463
77.698
76.889
76.042
75.16
74.244
73.297
72.316
71.302
70.251
69.162
68.031
66.86
65.65
64.409
63.142
61.849
60.526
59.162
57.742
56.262
54.712
53.085
51.389
49.632
47.834
46.029
44.242
42.49
40.788
39.139
37.546
36.02
34.571
33.219
31.991
30.908
29.988
29.235
28.611
28.069
27.543
26.948
26.232
25.344
24.211
22.789
21.02
18.838
16.234
13.135
9.378
4.933
-0.118
-5.523
-10.716
-15.154
-18.434
-20.005
-19.353
-16.407
-11.377
-5.126
0.684
4.596
5.415
1.919
-6.488
-19.345
-35.588
-52.877
-67.346
-75.287
-73.051
-56.672
-24.716
21.255
79.457
146.144
219.66
302.898
393.787
485.992
565.792
611.045
608.43
555.261
461.303
349.293
236.092
131.368
39.136
-44.397
-118.562
-178.928
-222.56
-246.151
-249.928
-237.808
-213.98
-182.993
-149.924
-119.064
-93.122
-73.589
-60.702
-53.639
-51.294
-52.413
-55.099
-57.429
-58.356
-57.467
-54.902
-51.235
-46.978
-42.563
-38.623
-35.79
-34.335
-34.268
-35.389
-37.333
-39.805
-42.572
-45.372
-47.949
-50.133
-51.811
-52.933
-53.51
-53.543
-53.025
-51.967
-50.385
-48.309
-45.793
-42.892
-39.657
-36.156
-32.454
-28.622
-24.737
-20.855
-17.015
-13.251
-9.583
-6.026
-2.595
0.701
3.858
6.872
9.737
12.447
14.992
17.367
19.568
21.592
23.44
25.108
26.589
27.875
28.96
29.833
30.488
30.917
31.108
31.055
30.754
30.205
29.409
28.365
27.077
25.548
23.782
21.785
19.563
17.121
14.466
11.607
8.552
5.313
1.901
-1.671
-5.39
-9.24
-13.207
-17.275
-21.427
-25.648
-29.923
-34.235
-38.568
-42.906
-47.234
-51.536
-55.799
-60.007
-64.147
-68.205
-72.17
-76.03
-79.776
-83.397
-86.885
-90.233
-93.433
-96.48
-99.368
-102.092
-104.648
-107.034
-109.249
-111.29
-113.16
-114.86
-116.393
-117.762
-118.974
-120.032
-120.944
-121.716
-122.357
-122.873
-123.274
-123.568
-123.766
-123.877
-123.911
-123.879
-123.789
-123.652
-123.478
-123.274
-123.05
-122.813
-122.572
-122.334
-122.106
-121.895
-121.706
-121.547
-121.422
-121.336
-121.291
-121.29
-121.335
-121.427
-121.565
-121.748
-121.976
-122.245
-122.554
-122.9
-123.281
-123.691
-124.128
-124.585
-125.057
-125.539
-126.026
-126.51
-126.987
-127.45
-127.898
-128.328
-128.739
-129.13
-129.497
-129.842
-130.164
-130.46
-130.728
-130.961
-131.156
-131.311
-131.425
-131.502
-131.543
-131.548
-131.521
-131.467
-131.387
-131.283
-131.155
-130.993
-130.799
-130.578
-130.338
-130.101
-129.882
-129.689
-129.534
-129.42
-129.346
-129.307
-129.286
-129.251
-129.179
-129.055
-128.864
-128.607
-128.272
-127.835
-127.279
-126.573
-125.691
-124.618
-123.349
-121.904
-120.326
-118.669
-117.001
-115.401
-113.942
-112.727
-111.855
-111.415
-111.517
-112.226
-113.64
-115.947
-119.195
-123.301
-128.031
-132.887
-137.401
-141.311
-144.212
-145.563
-145.278
-143.52
-140.942
-138.974
-138.644
-140.424
-144.988
-152.86
-163.714
-176.686
-189.779
-199.669
-203.804
-200.166
-186.319
-160.2
-120.376
-67.537
-5.663
60.27
125.962
191.049
258.974
328.975
396.173
449.021
469.422
447.531
381.465
276.986
150.495
16.407
-113.076
-224.634
-311.054
-368.846
-398.846
-410.576
-413.452
-412.484
-408.821
-398.264
-377.814
-349.13
-316.162
-283.329
-252.838
-224.955
-199.511
-176.886
-158.37
-144.401
-134.382
-128.063
-125.445
-126.376
-130.661
-137.142
-143.704
-149.166
-153.207
-155.466
-155.779
-154.023
-150.02
-144.321
-138.177
-132.329
-127.023
-122.372
-118.184
-114.35
-110.929
-107.688
-104.147
-99.993
-95.054
-89.313
-82.983
-76.246
-69.187
-61.924
-54.574
-47.229
-40.003
-32.958
-26.088
-19.381
-12.832
-6.449
-0.274
5.645
11.278
16.608
21.643
26.402
30.891
35.111
39.061
42.747
46.184
49.379
52.323
54.996
57.38
59.467
61.26
62.762
63.973
64.89
65.509
65.828
65.849
65.574
65.004
64.142
62.987
61.545
59.824
57.835
55.591
53.103
50.382
47.441
44.295
40.959
37.449
33.778
29.963
26.019
21.965
17.817
13.593
9.31
4.987
0.641
-3.709
-8.046
-12.353
-16.612
-20.806
-24.919
-28.936
-32.841
-36.62
-40.26
-43.748
-47.072
-50.223
-53.19
-55.965
-58.54
-60.911
-63.073
-65.022
-66.758
-68.281
-69.592
-70.694
-71.59
-72.285
-72.786
-73.098
-73.23
-73.191
-72.991
-72.64
-72.15
-71.533
-70.802
-69.969
-69.048
-68.051
-66.99
-65.879
-64.73
-63.554
-62.363
-61.169
-59.981
-58.81
-57.665
-56.553
-55.482
-54.458
-53.485
-52.567
-51.706
-50.903
-50.159
-49.471
-48.839
-48.259
-47.728
-47.243
-46.798
-46.387
-46.004
-45.64
-45.289
-44.943
-44.594
-44.232
-43.85
-43.439
-42.996
-42.514
-41.989
-41.416
-40.792
-40.113
-39.377
-38.58
-37.717
-36.782
-35.771
-34.681
-33.511
-32.261
-30.933
-29.53
-28.057
-26.52
-24.923
-23.268
-21.557
-19.787
-17.961
-16.083
-14.16
-12.207
-10.242
-8.276
-6.322
-4.387
-2.464
-0.546
1.386
3.363
5.407
7.54
9.782
12.139
14.623
17.235
19.974
22.856
25.901
29.117
32.51
36.061
39.71
43.403
47.066
50.6
53.937
56.98
59.618
61.779
63.374
64.347
64.701
64.365
63.231
61.316
58.719
55.707
52.781
50.329
48.661
48.237
49.4
52.23
56.609
61.866
66.923
70.93
73.077
72.548
69.161
63.368
56.177
49.599
45.994
47.606
57.142
77.23
109.616
153.439
204.986
260.161
314.77
369.407
429.092
492.979
556.862
608.653
626.174
597.371
518.635
396.268
254.984
118.031
4.74
-70.345
-109.252
-120.894
-117.397
-110.637
-104.281
-97.257
-85.836
-68.152
-46.828
-25.61
-8.308
3.281
9.906
12.998
14.021
14.506
15.837
18.769
23.58
30.148
37.954
46.474
55.314
63.932
71.71
78.346
83.751
88.005
91.397
94.135
96.354
98.266
100.077
101.97
104.136
106.68
109.628
113.02
116.877
121.206
126.027
131.323
137.04
143.133
149.552
156.252
163.198
170.342
177.623
184.978
192.331
199.628
206.833
213.914
220.847
227.611
234.185
240.561
246.743
252.731
258.518
264.096
269.45
274.568
279.447
284.08
288.461
292.579
296.422
299.979
303.237
306.184
308.806
311.089
313.014
314.57
315.746
316.533
316.924
316.913
316.493
315.662
314.416
312.757
310.682
308.195
305.296
301.99
298.286
294.191
289.716
284.872
279.671
274.131
268.266
262.095
255.637
248.913
241.944
234.754
227.365
219.803
212.092
204.257
196.325
188.319
180.268
172.195
164.126
156.085
148.097
140.187
132.377
124.691
117.15
109.773
102.581
95.591
88.821
82.286
75.998
69.97
64.212
58.734
53.544
48.647
44.046
39.744
35.741
32.037
28.626
25.506
22.668
20.106
17.81
15.772
13.98
12.425
11.094
9.976
9.056
8.324
7.764
7.361
7.101
6.97
6.951
7.033
7.199
7.436
7.731
8.07
8.442
8.835
9.236
9.633
10.012
10.364
10.677
10.942
11.149
11.29
11.357
11.346
11.251
11.067
10.791
10.418
9.943
9.361
8.668
7.858
6.925
5.866
4.678
3.359
1.91
0.331
-1.375
-3.205
-5.153
-7.218
-9.398
-11.691
-14.097
-16.612
-19.229
-21.94
-24.735
-27.609
-30.551
-33.544
-36.575
-39.636
-42.727
-45.86
-49.041
-52.26
-55.51
-58.777
-62.048
-65.314
-68.547
-71.701
-74.732
-77.595
-80.264
-82.743
-85.026
-87.089
-88.902
-90.415
-91.605
-92.502
-93.108
-93.417
-93.428
-93.119
-92.546
-91.853
-91.167
-90.623
-90.335
-90.324
-90.678
-91.549
-92.954
-94.848
-97.049
-99.127
-100.796
-101.902
-102.147
-101.336
-99.531
-96.879
-93.935
-91.649
-90.69
-91.661
-95.308
-101.81
-110.638
-120.722
-130.249
-136.98
-138.911
-133.941
-119.726
-94.811
-59.161
-13.959
38.485
95.138
152.64
206.971
253.191
286.809
304.896
305.737
288.676
254.051
203.09
138.521
64.937
-12.617
-89.952
-163.289
-229.173
-284.555
-326.881
-355.235
-370.612
-374.656
-368.736
-354.225
-332.683
-306.275
-277.661
-248.592
-219.9
-192.339
-166.944
-145.187
-128.482
-117.186
-110.75
-108.779
-110.856
-116.322
-124.177
-132.631
-139.84
-144.859
-147.366
-147.241
-144.647
-139.82
-133.218
-125.884
-118.771
-112.321
-106.73
-101.946
-97.785
-94.167
-90.907
-87.617
-84.04
-80.084
-75.739
-71.143
-66.425
-61.637
-56.867
-52.217
-47.749
-43.527
-39.573
-35.865
-32.401
-29.184
-26.217
-23.512
-21.069
-18.871
-16.914
-15.192
-13.702
-12.448
-11.428
-10.638
-10.078
-9.743
-9.631
-9.745
-10.08
-10.632
-11.395
-12.363
-13.532
-14.902
-16.469
-18.229
-20.175
-22.298
-24.592
-27.05
-29.662
-32.419
-35.311
-38.331
-41.469
-44.718
-48.07
-51.516
-55.045
-58.647
-62.313
-66.03
-69.788
-73.573
-77.375
-81.181
-84.98
-88.759
-92.508
-96.214
-99.865
-103.451
-106.961
-110.383
-113.709
-116.927
-120.028
-123.004
-125.847
-128.549
-131.104
-133.504
-135.747
-137.826
-139.739
-141.482
-143.054
-144.454
-145.681
-146.736
-147.622
-148.341
-148.895
-149.289
-149.529
-149.621
-149.571
-149.386
-149.076
-148.647
-148.11
-147.473
-146.745
-145.936
-145.055
-144.109
-143.109
-142.062
-140.977
-139.861
-138.722
-137.566
-136.4
-135.23
-134.06
-132.895
-131.736
-130.585
-129.444
-128.313
-127.191
-126.078
-124.969
-123.863
-122.757
-121.648
-120.533
-119.405
-118.259
-117.091
-115.894
-114.665
-113.397
-112.083
-110.72
-109.304
-107.835
-106.312
-104.733
-103.099
-101.411
-99.67
-97.879
-96.038
-94.145
-92.201
-90.208
-88.169
-86.091
-83.979
-81.842
-79.689
-77.532
-75.382
-73.25
-71.14
-69.054
-66.997
-64.976
-63.006
-61.103
-59.281
-57.551
-55.924
-54.411
-53.015
-51.726
-50.52
-49.361
-48.22
-47.08
-45.926
-44.752
-43.544
-42.279
-40.945
-39.534
-38.037
-36.449
-34.756
-32.949
-31.063
-29.176
-27.371
-25.763
-24.428
-23.396
-22.743
-22.54
-22.856
-23.787
-25.374
-27.606
-30.541
-34.281
-38.795
-43.958
-49.407
-54.525
-58.83
-61.916
-63.3
-62.651
-59.905
-55.305
-49.706
-44.366
-40.249
-38.231
-39.106
-43.021
-49.512
-57.343
-64.163
-67.368
-64.52
-52.851
-29.813
6.152
54.321
111.263
172.634
235.341
300.344
369.768
440.999
505.487
547.112
550.637
512.337
437.523
340.764
236.668
130.068
25.647
-71.802
-156.235
-215.391
-245.321
-251.845
-241.865
-226.034
-209.679
-190.268
-168.077
-144.133
-120.088
-100.086
-85.67
-76.057
-70.313
-66.907
-64.079
-60.497
-55.452
-48.64
-40.29
-31.045
-21.42
-11.82
-2.837
4.97
11.347
16.22
19.759
22.304
24.099
25.348
26.283
27.125
28.092
29.359
31.005
33.052
35.514
38.395
41.708
45.456
49.601
54.086
58.848
63.829
68.978
74.243
79.558
84.855
90.056
95.103
99.962
104.608
109.029
113.214
117.153
120.844
124.301
127.537
130.559
133.372
135.976
138.373
140.571
142.579
144.404
146.05
147.515
148.798
149.897
150.81
151.531
152.055
152.372
152.477
152.366
152.038
151.493
150.729
149.745
148.542
147.122
145.485
143.634
141.569
139.293
136.81
134.123
131.24
128.167
124.912
121.483
117.891
114.146
110.263
106.251
102.126
97.9
93.589
89.209
84.775
80.304
75.813
71.319
66.84
62.393
57.995
53.665
49.418
45.271
41.239
37.339
33.583
29.987
26.561
23.319
20.27
17.424
14.791
12.375
10.183
8.218
6.483
4.978
3.701
2.65
1.821
1.207
0.802
0.598
0.586
0.756
1.095
1.594
2.238
3.015
3.911
4.911
6
7.162
8.384
9.651
10.948
12.26
13.575
14.879
16.161
17.41
18.614
19.765
20.853
21.871
22.815
23.678
24.458
25.152
25.759
26.28
26.718
27.073
27.349
27.55
27.678
27.739
27.738
27.677
27.559
27.391
27.174
26.916
26.62
26.291
25.935
25.558
25.166
24.766
24.363
23.958
23.553
23.15
22.75
22.35
21.949
21.543
21.129
20.714
20.298
19.878
19.448
18.989
18.491
17.952
17.367
16.731
16.046
15.318
14.57
13.846
13.181
12.605
12.136
11.771
11.523
11.414
11.464
11.7
12.127
12.728
13.497
14.441
15.534
16.723
17.895
18.887
19.57
19.854
19.682
19.004
17.729
15.759
13.008
9.416
5.003
-0.23
-6.369
-13.413
-21.212
-29.412
-37.355
-44.385
-50.069
-53.953
-55.574
-54.776
-51.592
-46.609
-41.116
-36.245
-32.824
-31.649
-33.085
-36.812
-42.084
-47.013
-48.663
-44.462
-31.842
-8.204
28.084
77.624
138.785
206.852
276.6
344.038
408.553
471.559
530.592
577.882
599.432
581.406
520.022
422.746
306.812
190.487
84.673
-7.369
-87.75
-157.682
-215.338
-258.074
-283.381
-291.594
-285.391
-267.53
-241.447
-211.037
-179.765
-150.435
-125.102
-104.562
-89.039
-79.087
-74.599
-74.378
-76.852
-80.399
-83.482
-85.421
-85.898
-84.157
-79.846
-73.253
-64.929
-55.829
-47.063
-39.113
-32.17
-26.573
-22.403
-19.587
-17.988
-17.11
-16.326
-15.318
-13.928
-12.063
-9.774
-7.052
-3.855
-0.267
3.592
7.642
11.817
16.103
20.52
25.036
29.59
34.109
38.504
42.72
46.734
50.523
54.076
57.383
60.432
63.234
65.807
68.162
70.305
72.232
73.936
75.42
76.694
77.77
78.662
79.376
79.915
80.281
80.476
80.499
80.348
80.018
79.503
78.799
77.906
76.825
75.557
74.104
72.467
70.649
68.654
66.484
64.143
61.636
58.968
56.144
53.172
50.06
46.817
43.453
39.979
36.407
32.751
29.026
25.245
21.425
17.584
13.738
9.906
6.104
2.351
-1.335
-4.936
-8.434
-11.812
-15.052
-18.137
-21.052
-23.782
-26.312
-28.63
-30.727
-32.591
-34.217
-35.599
-36.732
-37.615
-38.248
-38.632
-38.769
-38.665
-38.328
-37.765
-36.988
-36.01
-34.847
-33.517
-32.038
-30.43
-28.717
-26.92
-25.062
-23.168
-21.259
-19.362
-17.499
-15.695
-13.973
-12.358
-10.872
-9.539
-8.377
-7.407
-6.644
-6.104
-5.799
-5.737
-5.927
-6.37
-7.071
-8.031
-9.249
-10.724
-12.451
-14.426
-16.641
-19.088
-21.754
-24.622
-27.673
-30.882
-34.224
-37.674
-41.204
-44.789
-48.403
-52.02
-55.621
-59.186
-62.692
-66.117
-69.431
-72.601
-75.601
-78.41
-81.012
-83.396
-85.566
-87.535
-89.319
-90.942
-92.415
-93.743
-94.919
-95.922
-96.734
-97.328
-97.688
-97.82
-97.728
-97.419
-96.905
-96.183
-95.219
-93.968
-92.378
-90.375
-87.913
-84.954
-81.473
-77.49
-73.053
-68.242
-63.134
-57.776
-52.196
-46.42
-40.471
-34.401
-28.31
-22.305
-16.497
-11.052
-6.121
-1.876
1.491
3.871
5.223
5.56
4.923
3.307
0.678
-2.989
-7.713
-13.466
-20.131
-27.638
-35.941
-44.82
-53.972
-62.896
-70.864
-77.301
-81.798
-83.937
-83.426
-80.205
-74.37
-66.563
-57.928
-49.461
-42.134
-36.762
-33.463
-31.889
-31.331
-30.059
-25.648
-15.846
1.841
29.79
68.751
118.322
177.619
242.732
308.76
372.49
428.395
473.61
507.129
523.059
519.114
491.106
433.911
352.142
248.74
133.347
22.546
-74.649
-146.496
-189.217
-211.401
-218.408
-217.965
-214.528
-204.434
-187.328
-164.995
-140.208
-117.861
-100.312
-87.367
-78.217
-71.605
-66.398
-61.334
-55.015
-46.662
-36.143
-23.903
-10.703
2.889
16.405
29.213
40.686
50.396
58.112
63.881
67.916
70.387
71.472
71.372
70.298
68.52
66.324
63.943
61.597
59.45
57.601
56.162
55.23
54.887
55.232
56.322
58.169
60.779
64.128
68.178
72.882
78.137
83.79
89.692
95.674
101.614
107.439
113.074
118.455
123.528
128.227
132.51
136.361
139.753
142.662
145.072
146.963
148.34
149.234
149.682
149.724
149.391
148.692
147.635
146.228
144.472
142.37
139.919
137.109
133.936
130.406
126.527
122.313
117.775
112.916
107.744
102.268
96.498
90.453
84.151
77.611
70.859
63.923
56.834
49.625
42.331
34.983
27.613
20.25
12.928
5.677
-1.473
-8.492
-15.349
-22.018
-28.467
-34.67
-40.601
-46.232
-51.544
-56.513
-61.122
-65.354
-69.195
-72.633
-75.659
-78.266
-80.45
-82.209
-83.541
-84.451
-84.943
-85.027
-84.714
-84.018
-82.956
-81.548
-79.816
-77.785
-75.481
-72.931
-70.165
-67.213
-64.106
-60.877
-57.559
-54.187
-50.793
-47.41
-44.073
-40.815
-37.668
-34.661
-31.822
-29.179
-26.758
-24.582
-22.672
-21.045
-19.718
-18.708
-18.031
-17.698
-17.718
-18.097
-18.84
-19.948
-21.42
-23.25
-25.425
-27.929
-30.747
-33.864
-37.262
-40.921
-44.821
-48.938
-53.251
-57.744
-62.396
-67.18
-72.062
-77.003
-81.978
-86.974
-91.984
-96.998
-101.998
-106.972
-111.914
-116.832
-121.718
-126.55
-131.284
-135.874
-140.296
-144.546
-148.635
-152.568
-156.335
-159.906
-163.255
-166.378
-169.268
-171.898
-174.216
-176.161
-177.702
-178.866
-179.711
-180.274
-180.562
-180.559
-180.245
-179.629
-178.731
-177.573
-176.167
-174.499
-172.592
-170.521
-168.395
-166.325
-164.389
-162.61
-160.997
-159.63
-158.61
-158.028
-157.973
-158.476
-159.556
-161.264
-163.667
-166.829
-170.767
-175.419
-180.669
-186.422
-192.627
-199.152
-205.738
-211.929
-217.129
-220.772
-222.446
-221.862
-218.711
-212.96
-204.896
-195.041
-184.436
-174.254
-165.279
-157.875
-152.122
-147.408
-142.516
-136.165
-126.239
-109.94
-85.148
-50.622
-5.645
47.716
106.334
169.057
232.191
293.496
351.307
397.026
424.504
427.598
399.997
346.773
274.308
189.546
102.269
14.943
-70.329
-149.193
-218.935
-274.581
-312.695
-333.332
-337.324
-326.744
-304.153
-272.325
-234.921
-195.897
-158.197
-124.01
-95.033
-72.332
-56.848
-48.725
-46.906
-49.732
-55.738
-63.447
-71.311
-78.136
-82.681
-84.161
-82.659
-78.682
-72.82
-65.854
-58.675
-51.881
-46.013
-41.418
-38.01
-35.555
-33.76
-32.225
-30.534
-28.466
-25.883
-22.718
-19.042
-14.915
-10.403
-5.618
-0.657
4.423
9.582
14.795
20.043
25.276
30.442
35.506
40.435
45.21
49.826
54.269
58.534
62.625
66.543
70.288
73.853
77.225
80.395
83.358
86.113
88.664
91.012
93.16
95.11
96.865
98.424
99.786
100.946
101.899
102.642
103.179
103.51
103.643
103.581
103.332
102.902
102.303
101.541
100.624
99.562
98.361
97.032
95.585
94.032
92.384
90.653
88.85
86.988
85.079
83.136
81.171
79.195
77.219
75.253
73.31
71.398
69.528
67.709
65.95
64.26
62.647
61.119
59.682
58.343
57.107
55.979
54.961
54.055
53.264
52.586
52.023
51.572
51.231
50.999
50.871
50.843
50.911
51.068
51.308
51.625
52.011
52.458
52.958
53.502
54.082
54.69
55.315
55.951
56.587
57.214
57.826
58.412
58.966
59.477
59.94
60.345
60.686
60.957
61.153
61.267
61.296
61.237
61.087
60.844
60.508
60.079
59.555
58.939
58.233
57.438
56.557
55.594
54.552
53.436
52.25
50.999
49.689
48.324
46.908
45.448
43.948
42.413
40.846
39.248
37.62
35.966
34.288
32.586
30.862
29.118
27.357
25.585
23.807
22.024
20.236
18.443
16.643
14.837
13.023
11.197
9.359
7.507
5.645
3.781
1.917
0.05
-1.827
-3.731
-5.673
-7.657
-9.685
-11.758
-13.865
-15.997
-18.127
-20.216
-22.237
-24.169
-25.996
-27.721
-29.328
-30.793
-32.097
-33.207
-34.098
-34.759
-35.181
-35.377
-35.39
-35.273
-35.093
-34.937
-34.871
-34.977
-35.333
-35.996
-37.053
-38.561
-40.599
-43.32
-46.766
-50.859
-55.414
-60.011
-64.199
-67.686
-70.04
-70.712
-69.602
-66.857
-63.033
-59.413
-57.015
-56.431
-58.504
-63.879
-72.315
-83.057
-94.314
-103.018
-106.621
-102.973
-89.52
-64.253
-26.241
24.461
85.951
154.599
226.894
298.745
364.822
419.755
458.549
478.256
478.937
461.431
425.512
368.646
288.026
185.88
71.406
-39.058
-128.448
-187.47
-216.724
-226.543
-228.786
-229.846
-230.021
-224.599
-210.296
-187.775
-160.648
-133.781
-109.889
-89.765
-73.384
-60.135
-50.085
-43.655
-40.253
-39.178
-39.729
-40.77
-41.759
-42.55
-42.568
-41.173
-38.271
-33.903
-28.479
-22.927
-17.69
-12.831
-8.564
-5.109
-2.577
-1.017
-0.179
0.529
1.47
2.685
4.274
6.536
9.77
14.058
19.242
24.816
31.336
40.841
54.377
70.676
84.379
87.657
76.649
54.912
33.843
26.464
39.036
67.522
98.982
121.081
128.335
123.079
113.712
106.735
104.298
105.655
107.934
109.66
111.007
112.193
113.51
114.884
115.949
116.602
116.894
116.812
116.353
115.542
114.432
113.106
111.63
110.02
108.26
106.35
104.307
102.141
99.864
97.48
94.995
92.42
89.774
87.073
84.33
81.558
78.771
75.981
73.202
70.446
67.725
65.048
62.428
59.873
57.394
54.999
52.697
50.495
48.4
46.42
44.561
42.826
41.222
39.751
38.418
37.225
36.174
35.266
34.502
33.884
33.41
33.081
32.894
32.847
32.938
33.161
33.514
33.99
34.585
35.291
36.103
37.012
38.012
39.096
40.254
41.479
42.762
44.096
45.471
46.879
48.312
49.76
51.215
52.669
54.112
55.537
56.935
58.297
59.617
60.886
62.099
63.248
64.327
65.331
66.256
67.098
67.853
68.519
69.093
69.576
69.965
70.263
70.471
70.59
70.624
70.574
70.446
70.244
69.971
69.631
69.225
68.757
68.23
67.646
67.009
66.321
65.586
64.811
64.004
63.172
62.322
61.46
60.59
59.715
58.837
57.957
57.073
56.184
55.291
54.397
53.509
52.63
51.757
50.888
50.007
49.104
48.172
47.2
46.18
45.119
44.029
42.938
41.889
40.915
40.041
39.287
38.662
38.182
37.861
37.707
37.73
37.942
38.347
38.944
39.724
40.636
41.593
42.485
43.169
43.533
43.493
42.96
41.861
40.104
37.604
34.302
30.184
25.224
19.352
12.603
5.153
-2.647
-10.233
-16.99
-22.403
-26.103
-27.724
-27.245
-25.061
-21.774
-18.446
-16.317
-16.256
-18.622
-23.401
-29.718
-35.821
-39.875
-39.523
-31.751
-13.903
15.535
57.3
109.455
167.146
227.751
288.779
347.883
406.228
458.282
494.343
507.74
487.895
433.174
352.329
251.037
143.553
43.641
-43.559
-108.34
-149.932
-175.351
-187.469
-193.208
-195.608
-190.764
-178.33
-158.601
-132.917
-106.264
-81.663
-59.975
-41.969
-27.432
-15.929
-7.728
-3.129
-1.55
-2.412
-5.141
-8.602
-12.174
-15.675
-18.511
-20.017
-20.047
-18.523
-15.725
-12.533
-9.348
-6.221
-3.366
-0.913
1.094
2.579
3.742
5.059
6.774
8.958
11.646
14.758
18.259
22.16
26.389
30.817
35.343
39.883
44.387
48.843
53.229
57.508
61.648
65.616
69.393
72.972
76.349
79.526
82.497
85.255
87.792
90.1
92.174
94.013
95.612
96.967
98.076
98.935
99.543
99.907
100.026
99.899
99.524
98.898
98.02
96.894
95.526
93.921
92.088
90.033
87.767
85.301
82.647
79.815
76.817
73.662
70.364
66.935
63.39
59.743
56.01
52.204
48.342
44.438
40.507
36.565
32.623
28.696
24.796
20.934
17.123
13.374
9.696
6.099
2.592
-0.819
-4.126
-7.322
-10.405
-13.368
-16.209
-18.926
-21.516
-23.979
-26.314
-28.524
-30.607
-32.568
-34.409
-36.134
-37.746
-39.253
-40.658
-41.968
-43.19
-44.327
-45.388
-46.377
-47.299
-48.161
-48.967
-49.722
-50.431
-51.097
-51.725
-52.318
-52.878
-53.408
-53.91
-54.384
-54.831
-55.252
-55.647
-56.015
-56.358
-56.674
-56.963
-57.224
-57.457
-57.658
-57.826
-57.959
-58.054
-58.107
-58.116
-58.078
-57.992
-57.856
-57.671
-57.435
-57.151
-56.819
-56.441
-56.019
-55.557
-55.058
-54.526
-53.965
-53.381
-52.783
-52.18
-51.581
-50.997
-50.438
-49.916
-49.441
-49.022
-48.668
-48.383
-48.173
-48.043
-48
-48.05
-48.2
-48.458
-48.83
-49.324
-49.944
-50.692
-51.568
-52.569
-53.688
-54.919
-56.259
-57.71
-59.28
-60.977
-62.802
-64.75
-66.813
-68.977
-71.227
-73.538
-75.876
-78.206
-80.492
-82.706
-84.832
-86.859
-88.776
-90.556
-92.157
-93.539
-94.688
-95.615
-96.334
-96.856
-97.188
-97.338
-97.362
-97.353
-97.404
-97.605
-98.024
-98.685
-99.644
-101.043
-102.968
-105.394
-108.145
-110.803
-112.952
-114.361
-114.772
-113.837
-111.39
-107.494
-102.634
-97.995
-94.794
-93.856
-95.927
-101.598
-110.89
-123.26
-137.292
-150.239
-159.131
-161.523
-154.929
-136.986
-106.12
-61.718
-5.724
56.78
120.593
181.993
240.731
298.546
353.611
399.686
424.687
415.463
366.061
277.594
160.024
29.658
-97.167
-204.303
-280.528
-323.05
-336.466
-332.457
-322.22
-311.114
-299.323
-282.644
-258.923
-230.821
-202.719
-178.96
-161.435
-149.659
-142.627
-139.462
-139.477
-141.253
-143.006
-143.779
-143.326
-141.774
-139.45
-136.303
-132.03
-127.103
-122.423
-118.458
-115.403
-113.164
-111.401
-110.052
-109.285
-108.928
-108.6
-108.024
-106.963
-105.366
-103.353
-100.946
-98.092
-94.805
-91.138
-87.17
-83.01
-78.719
-74.319
-69.853
-65.371
-60.942
-56.634
-52.491
-48.541
-44.802
-41.283
-37.996
-34.946
-32.135
-29.563
-27.231
-25.137
-23.287
-21.682
-20.322
-19.205
-18.326
-17.676
-17.251
-17.05
-17.073
-17.321
-17.794
-18.496
-19.431
-20.599
-21.999
-23.629
-25.485
-27.562
-29.854
-32.357
-35.061
-37.963
-41.055
-44.332
-47.786
-51.411
-55.197
-59.135
-63.216
-67.429
-71.762
-76.203
-80.742
-85.364
-90.058
-94.812
-99.613
-104.45
-109.309
-114.178
-119.044
-123.895
-128.717
-133.498
-138.224
-142.882
-147.46
-151.945
-156.326
-160.591
-164.73
-168.732
-172.587
-176.285
-179.819
-183.179
-186.358
-189.349
-192.148
-194.75
-197.151
-199.35
-201.347
-203.142
-204.737
-206.134
-207.337
-208.349
-209.177
-209.824
-210.298
-210.605
-210.754
-210.754
-210.613
-210.341
-209.95
-209.449
-208.85
-208.164
-207.401
-206.572
-205.688
-204.76
-203.799
-202.815
-201.818
-200.82
-199.829
-198.855
-197.904
-196.985
-196.101
-195.257
-194.458
-193.705
-192.999
-192.342
-191.733
-191.171
-190.656
-190.186
-189.758
-189.37
-189.017
-188.696
-188.402
-188.131
-187.878
-187.637
-187.405
-187.18
-186.96
-186.744
-186.53
-186.316
-186.101
-185.885
-185.666
-185.439
-185.2
-184.942
-184.665
-184.367
-184.051
-183.718
-183.367
-183.002
-182.629
-182.251
-181.873
-181.494
-181.11
-180.722
-180.335
-179.958
-179.61
-179.305
-179.05
-178.849
-178.706
-178.618
-178.578
-178.567
-178.548
-178.491
-178.372
-178.17
-177.881
-177.485
-176.962
-176.289
-175.441
-174.397
-173.149
-171.699
-170.066
-168.292
-166.433
-164.557
-162.753
-161.11
-159.729
-158.718
-158.163
-158.153
-158.745
-160.01
-162.084
-165.015
-168.738
-173.051
-177.566
-181.885
-185.742
-188.801
-190.56
-190.708
-189.2
-186.374
-183.165
-180.461
-178.756
-178.573
-180.526
-184.883
-191.334
-198.666
-204.592
-206.788
-203.215
-191.686
-169.894
-135.566
-88.88
-33.26
27.348
88.908
152.012
222.325
299.83
378.725
445.267
477.613
463.406
401.314
298.935
174.801
45.157
-77.585
-180.897
-258.047
-306.364
-327.821
-332.357
-329.661
-324.98
-319.291
-308.575
-290.513
-267.118
-242.248
-220.278
-203.19
-190.446
-180.936
-173.509
-167.269
-161.324
-154.577
-146.435
-136.929
-126.431
-115.535
-104.719
-94.326
-84.799
-76.635
-70.097
-65.216
-61.869
-59.749
-58.544
-57.998
-57.835
-57.781
-57.601
-57.12
-56.221
-54.853
-52.988
-50.606
-47.705
-44.271
-40.301
-35.799
-30.758
-25.223
-19.289
-13.047
-6.592
-0.014
6.611
13.214
19.727
26.116
32.37
38.49
44.481
50.339
56.05
61.602
66.971
72.156
77.175
82.04
86.76
91.347
95.804
100.136
104.358
108.464
112.439
116.265
119.925
123.405
126.7
129.805
132.714
135.422
137.923
140.209
142.281
144.134
145.766
147.174
148.354
149.306
150.034
150.545
150.845
150.94
150.837
150.544
150.072
149.432
148.635
147.692
146.616
145.422
144.125
142.741
141.287
139.78
138.237
136.675
135.113
133.567
132.055
130.592
129.195
127.88
126.66
125.551
124.565
123.714
123.009
122.46
122.077
121.867
121.838
121.996
122.343
122.885
123.623
124.557
125.686
127.008
128.519
130.215
132.089
134.133
136.339
138.695
141.191
143.814
146.551
149.387
152.309
155.301
158.348
161.435
164.547
167.669
170.786
173.883
176.947
179.964
182.922
185.809
188.614
191.327
193.938
196.44
198.825
201.088
203.222
205.224
207.091
208.82
210.412
211.865
213.181
214.363
215.412
216.334
217.135
217.819
218.393
218.865
219.242
219.535
219.749
219.893
219.971
219.99
219.957
219.878
219.756
219.597
219.405
219.187
218.952
218.707
218.457
218.206
217.955
217.706
217.46
217.215
216.969
216.722
216.473
216.225
215.986
215.757
215.535
215.315
215.083
214.822
214.527
214.186
213.794
213.358
212.888
212.407
211.95
211.543
211.203
210.951
210.79
210.731
210.794
210.99
211.341
211.875
212.605
213.545
214.689
215.979
217.351
218.721
219.98
221.065
221.898
222.381
222.445
221.991
220.932
219.245
216.845
213.597
209.496
204.642
199.323
194.109
189.477
185.798
183.578
183.169
184.619
187.736
191.672
195.148
197.223
197.083
193.971
187.816
179.142
169.115
160.236
155.403
156.968
167.484
189.393
224.071
272.034
331.25
396.48
462.756
526.46
587.056
646.091
701.355
746.167
768.638
756.19
703.606
612.884
494.337
363.52
235.442
125.174
43.402
-6.186
-26.611
-28.651
-22.615
-13.999
-3.649
12.654
36.475
64.716
93.245
117.586
135.485
147.279
153.459
154.355
151.18
145.943
140.532
136.154
133.208
131.529
131.214
132.784
136.174
140.527
144.763
148.116
150.382
151.744
152.309
151.926
150.541
148.434
146.136
144.119
142.6
141.598
141.042
140.946
141.377
142.345
143.772
145.55
147.59
149.85
152.333
155.022
157.868
160.802
163.737
166.608
169.384
172.038
174.554
176.919
179.113
181.124
182.956
184.612
186.089
187.384
188.484
189.377
190.062
190.543
190.828
190.92
190.817
190.513
190.006
189.292
188.367
187.226
185.861
184.269
182.447
180.399
178.127
175.636
172.93
170.014
166.894
163.576
160.067
156.375
152.506
148.47
144.275
139.934
135.456
130.855
126.141
121.328
116.428
111.455
106.42
101.337
96.218
91.076
85.923
80.772
75.635
70.525
65.452
60.428
55.464
50.569
45.752
41.022
36.386
31.853
27.427
23.116
18.925
14.857
10.917
7.108
3.433
-0.107
-3.511
-6.778
-9.909
-12.904
-15.765
-18.494
-21.094
-23.566
-25.915
-28.143
-30.256
-32.256
-34.149
-35.939
-37.631
-39.229
-40.738
-42.162
-43.503
-44.766
-45.954
-47.07
-48.118
-49.099
-50.017
-50.874
-51.673
-52.416
-53.103
-53.735
-54.314
-54.838
-55.309
-55.726
-56.088
-56.394
-56.645
-56.841
-56.98
-57.063
-57.088
-57.054
-56.96
-56.805
-56.589
-56.309
-55.967
-55.562
-55.097
-54.575
-54.001
-53.377
-52.709
-52
-51.257
-50.484
-49.683
-48.855
-48.002
-47.129
-46.239
-45.337
-44.429
-43.521
-42.621
-41.741
-40.889
-40.072
-39.292
-38.55
-37.846
-37.188
-36.582
-36.044
-35.582
-35.201
-34.911
-34.719
-34.624
-34.614
-34.659
-34.716
-34.749
-34.73
-34.636
-34.455
-34.169
-33.761
-33.221
-32.539
-31.713
-30.741
-29.623
-28.367
-27.014
-25.632
-24.33
-23.248
-22.505
-22.207
-22.443
-23.268
-24.73
-26.889
-29.788
-33.46
-37.927
-43.188
-49.234
-56.028
-63.438
-71.124
-78.511
-84.922
-89.74
-92.573
-93.229
-91.587
-87.587
-81.84
-75.734
-70.674
-68.082
-67.624
-66.861
-65.509
-64.391
-64.66
-69.399
-75.052
-72.273
-54.353
-14.655
46.96
121.381
201.368
280.895
351.75
407.63
441.572
443.893
412.565
353.579
274.501
186.784
97.811
8.193
-80.145
-165.019
-241.92
-303.688
-346.766
-370.845
-377.397
-369.71
-350.437
-321.685
-287.35
-251.815
-218.279
-189.123
-165.352
-146.816
-133.849
-126.972
-125.204
-126.823
-130.232
-133.705
-136.412
-138.348
-139.036
-137.759
-134.499
-129.641
-123.851
-118.2
-113.174
-108.711
-104.904
-101.893
-99.673
-98.162
-97.042
-95.745
-93.963
-91.645
-88.767
-85.378
-81.498
-77.107
-72.275
-67.148
-61.833
-56.399
-50.896
-45.332
-39.747
-34.213
-28.788
-23.515
-18.425
-13.526
-8.826
-4.332
-0.049
4.024
7.891
11.551
15.003
18.242
21.264
24.063
26.642
29.003
31.151
33.087
34.813
36.327
37.626
38.707
39.565
40.196
40.597
40.77
40.716
40.441
39.947
39.24
38.325
37.21
35.898
34.397
32.71
30.845
28.807
26.607
24.253
21.754
19.119
16.36
13.487
10.511
7.444
4.297
1.082
-2.19
-5.505
-8.85
-12.213
-15.581
-18.942
-22.282
-25.592
-28.857
-32.069
-35.216
-38.29
-41.28
-44.18
-46.981
-49.675
-52.258
-54.723
-57.066
-59.283
-61.371
-63.328
-65.152
-66.843
-68.4
-69.825
-71.117
-72.278
-73.31
-74.215
-74.998
-75.663
-76.214
-76.657
-76.999
-77.247
-77.41
-77.494
-77.508
-77.46
-77.357
-77.208
-77.02
-76.8
-76.555
-76.293
-76.019
-75.741
-75.464
-75.192
-74.929
-74.679
-74.445
-74.228
-74.031
-73.854
-73.699
-73.568
-73.464
-73.388
-73.344
-73.332
-73.355
-73.414
-73.511
-73.646
-73.817
-74.025
-74.266
-74.542
-74.852
-75.195
-75.572
-75.983
-76.431
-76.919
-77.451
-78.026
-78.647
-79.315
-80.03
-80.792
-81.602
-82.455
-83.352
-84.296
-85.29
-86.336
-87.437
-88.588
-89.789
-91.037
-92.327
-93.655
-95.012
-96.385
-97.772
-99.178
-100.615
-102.1
-103.64
-105.23
-106.871
-108.562
-110.297
-112.058
-113.809
-115.498
-117.087
-118.562
-119.916
-121.149
-122.244
-123.167
-123.886
-124.381
-124.643
-124.671
-124.448
-123.942
-123.144
-122.099
-120.911
-119.729
-118.684
-117.86
-117.302
-117.098
-117.374
-118.177
-119.457
-120.99
-122.392
-123.375
-123.737
-123.223
-121.656
-119.055
-115.59
-111.95
-109.208
-108.246
-109.992
-115.27
-124.192
-136.329
-150.673
-164.955
-176.523
-183.074
-181.488
-168.767
-143.641
-105.555
-56.461
-1.843
54.742
110.72
163.525
213.652
256.762
284.263
288.507
259.805
195.267
100.789
-14.181
-132.437
-235.925
-313.078
-357.088
-371.615
-369.036
-358.794
-346.988
-335.118
-318.444
-295.73
-270.163
-244.953
-224.22
-210.301
-202.698
-200.642
-203.605
-209.889
-217.047
-223.594
-228.664
-231.849
-233.458
-233.518
-231.532
-227.888
-223.733
-219.723
-216.284
-213.529
-211.069
-208.794
-206.914
-205.294
-203.571
-201.516
-198.898
-195.639
-191.891
-187.694
-183.012
-177.88
-172.34
-166.445
-160.293
-153.946
-147.438
-140.822
-134.158
-127.509
-120.938
-114.491
-108.201
-102.096
-96.194
-90.514
-85.066
-79.859
-74.911
-70.238
-65.853
-61.764
-57.978
-54.497
-51.325
-48.46
-45.896
-43.628
-41.65
-39.96
-38.559
-37.445
-36.616
-36.07
-35.801
-35.805
-36.071
-36.592
-37.354
-38.345
-39.553
-40.964
-42.566
-44.347
-46.294
-48.395
-50.636
-53.005
-55.487
-58.07
-60.739
-63.48
-66.28
-69.125
-72.004
-74.904
-77.813
-80.721
-83.615
-86.487
-89.325
-92.12
-94.861
-97.538
-100.141
-102.66
-105.085
-107.408
-109.619
-111.71
-113.672
-115.498
-117.18
-118.711
-120.086
-121.297
-122.339
-123.209
-123.901
-124.412
-124.74
-124.883
-124.839
-124.608
-124.19
-123.586
-122.796
-121.823
-120.67
-119.339
-117.836
-116.165
-114.333
-112.346
-110.213
-107.942
-105.542
-103.022
-100.393
-97.666
-94.852
-91.963
-89.011
-86.009
-82.971
-79.908
-76.833
-73.758
-70.694
-67.652
-64.642
-61.672
-58.752
-55.888
-53.089
-50.36
-47.71
-45.143
-42.664
-40.277
-37.986
-35.792
-33.696
-31.697
-29.795
-27.986
-26.268
-24.639
-23.094
-21.633
-20.253
-18.952
-17.725
-16.57
-15.482
-14.455
-13.482
-12.554
-11.659
-10.79
-9.938
-9.097
-8.264
-7.435
-6.606
-5.777
-4.942
-4.097
-3.238
-2.356
-1.443
-0.492
0.5
1.524
2.562
3.597
4.617
5.619
6.6
7.565
8.518
9.476
10.465
11.518
12.659
13.906
15.26
16.717
18.276
19.956
21.793
23.819
26.036
28.42
30.942
33.575
36.291
39.06
41.788
44.342
46.602
48.454
49.809
50.647
50.89
50.372
49.027
46.892
44.189
41.405
38.98
37.173
36.33
36.841
38.827
42.208
46.327
49.833
51.54
50.562
46.048
37.578
25.506
10.792
-4.354
-16.591
-22.911
-20.367
-5.939
22.431
65.605
121.9
186.399
253.791
319.808
383.657
446.856
506.335
554.84
580.381
568.623
514.755
423.58
306.052
181.488
67.574
-25.407
-89.057
-124.479
-140.533
-142.986
-138.503
-129.514
-111.905
-85.331
-51.975
-15.573
17.903
45.226
65.871
79.657
86.75
87.877
84.429
78.566
72.579
67.782
64.522
63.125
64.163
67.811
73.747
81.053
88.414
95.116
101.039
106.101
110.197
113.284
115.394
116.866
118.287
120.006
122.138
124.708
127.663
130.996
134.742
138.86
143.243
147.805
152.486
157.259
162.129
167.069
172.021
176.918
181.697
186.315
190.746
194.97
198.972
202.735
206.244
209.493
212.474
215.176
217.591
219.702
221.494
222.958
224.091
224.892
225.366
225.51
225.32
224.79
223.914
222.689
221.109
219.168
216.862
214.191
211.157
207.765
204.022
199.936
195.513
190.766
185.702
180.335
174.676
168.74
162.54
156.094
149.42
142.536
135.463
128.222
120.834
113.322
105.708
98.016
90.269
82.489
74.7
66.925
59.185
51.504
43.903
36.402
29.022
21.781
14.699
7.792
1.077
-5.432
-11.722
-17.781
-23.598
-29.166
-34.476
-39.523
-44.303
-48.812
-53.049
-57.013
-60.707
-64.132
-67.293
-70.194
-72.843
-75.247
-77.416
-79.359
-81.087
-82.613
-83.947
-85.102
-86.091
-86.926
-87.619
-88.182
-88.628
-88.968
-89.214
-89.375
-89.464
-89.49
-89.462
-89.387
-89.273
-89.126
-88.951
-88.753
-88.535
-88.299
-88.047
-87.781
-87.503
-87.213
-86.911
-86.597
-86.27
-85.927
-85.567
-85.187
-84.783
-84.351
-83.889
-83.392
-82.86
-82.291
-81.683
-81.04
-80.362
-79.653
-78.914
-78.148
-77.356
-76.542
-75.708
-74.854
-73.983
-73.097
-72.201
-71.303
-70.412
-69.538
-68.686
-67.863
-67.073
-66.326
-65.626
-64.972
-64.366
-63.809
-63.312
-62.899
-62.593
-62.403
-62.337
-62.392
-62.562
-62.845
-63.227
-63.671
-64.146
-64.611
-65.038
-65.432
-65.791
-66.111
-66.371
-66.528
-66.554
-66.453
-66.24
-65.937
-65.568
-65.151
-64.732
-64.407
-64.285
-64.485
-65.108
-66.208
-67.829
-69.981
-72.729
-76.186
-80.319
-84.971
-89.851
-94.529
-98.667
-102.048
-104.304
-105.037
-104.163
-101.776
-98.459
-95.243
-92.857
-91.975
-93.294
-96.946
-102.543
-109.238
-115.181
-118.157
-116.134
-106.389
-86.394
-54.835
-12.609
36.838
89.6
143.102
199.002
260.097
323.764
382.235
420.946
423.945
385.612
308.392
201.368
80.084
-43.125
-155.981
-243.666
-298.612
-318.613
-309.624
-287.378
-263.04
-241.644
-222.813
-200.307
-172.254
-141.264
-110.49
-83.878
-62.604
-45.434
-31.346
-19.135
-7.654
3.948
16.262
29.392
43.003
56.485
69.26
80.902
90.973
99.066
105.034
108.968
111.127
111.963
111.937
111.399
110.698
110.119
109.821
109.947
110.602
111.859
113.824
116.58
120.151
124.547
129.75
135.689
142.276
149.362
156.741
164.237
171.709
179.051
186.211
193.138
199.773
206.077
212.007
217.532
222.637
227.299
231.493
235.218
238.483
241.324
243.808
245.981
247.873
249.504
250.876
251.991
252.852
253.452
253.776
253.813
253.556
253.005
252.169
251.051
249.653
247.971
246
243.739
241.191
238.362
235.256
231.884
228.256
224.389
220.302
216.015
211.545
206.911
202.128
197.213
192.186
187.064
181.864
176.606
171.306
165.987
160.668
155.37
150.111
144.911
139.788
134.76
129.844
125.056
120.41
115.921
111.6
107.46
103.51
99.761
96.22
92.892
89.785
86.902
84.247
81.82
79.622
77.651
75.906
74.383
73.079
71.989
71.106
70.423
69.934
69.63
69.501
69.538
69.73
70.066
70.536
71.127
71.828
72.627
73.511
74.47
75.491
76.563
77.675
78.814
79.972
81.137
82.3
83.453
84.586
85.692
86.763
87.793
88.774
89.699
90.562
91.358
92.079
92.722
93.282
93.754
94.133
94.417
94.601
94.682
94.655
94.515
94.256
93.87
93.353
92.699
91.902
90.956
89.856
88.603
87.195
85.633
83.912
82.032
79.987
77.777
75.4
72.856
70.141
67.257
64.206
60.994
57.633
54.127
50.476
46.677
42.722
38.605
34.326
29.888
25.293
20.552
15.679
10.697
5.646
0.559
-4.537
-9.615
-14.654
-19.625
-24.49
-29.21
-33.744
-38.051
-42.105
-45.897
-49.419
-52.688
-55.729
-58.564
-61.261
-63.903
-66.58
-69.4
-72.453
-75.816
-79.605
-83.984
-89.036
-94.732
-100.902
-107.172
-113.176
-118.653
-123.29
-126.667
-128.527
-128.954
-128.445
-128.024
-128.745
-131.233
-135.993
-143.65
-154.447
-167.826
-182.324
-195.403
-204.173
-206.418
-200.047
-182.526
-151.751
-106.553
-48.367
18.153
87.992
156.592
223.218
290.828
358.071
419.822
464.651
475.035
441.852
366.002
255.714
127.129
-5.199
-132.353
-244.197
-329.569
-382.718
-401.609
-392.035
-369.04
-342.487
-316.706
-292.518
-265.192
-233.728
-200.64
-168.282
-140.192
-118.337
-102.88
-93.496
-89.095
-88.438
-90.649
-94.98
-100.486
-105.806
-109.618
-111.207
-110.385
-107.378
-102.558
-96.171
-88.685
-80.984
-73.816
-67.568
-62.368
-58.023
-54.277
-51.015
-48.024
-44.947
-41.543
-37.69
-33.357
-28.665
-23.733
-18.61
-13.372
-8.101
-2.857
2.299
7.318
12.177
16.849
21.305
25.527
29.492
33.19
36.621
39.787
42.701
45.372
47.806
50.008
51.976
53.712
55.224
56.522
57.619
58.525
59.253
59.815
60.225
60.495
60.634
60.651
60.549
60.336
60.022
59.616
59.131
58.576
57.96
57.295
56.589
55.851
55.088
54.307
53.511
52.706
51.897
51.09
50.288
49.495
48.716
47.952
47.207
46.483
45.779
45.096
44.435
43.793
43.171
42.565
41.975
41.397
40.83
40.269
39.713
39.158
38.601
38.038
37.464
36.877
36.273
35.647
34.996
34.314
33.599
32.845
32.05
31.208
30.315
29.367
28.359
27.288
26.147
24.935
23.646
22.277
20.823
19.284
17.655
15.935
14.122
12.215
10.213
8.115
5.922
3.633
1.25
-1.225
-3.791
-6.446
-9.184
-12.002
-14.894
-17.855
-20.882
-23.962
-27.087
-30.246
-33.427
-36.619
-39.818
-43.009
-46.171
-49.307
-52.409
-55.468
-58.488
-61.452
-64.313
-67.067
-69.714
-72.193
-74.478
-76.56
-78.378
-79.94
-81.343
-82.584
-83.619
-84.641
-85.799
-86.914
-88.031
-89.254
-90.009
-91.189
-93.988
-96.879
-99.371
-99.11
-91.579
-79.343
-66.511
-57.273
-59.699
-72.943
-89.265
-103.439
-107.247
-98.352
-84.668
-70.956
-61.888
-60.942
-63.399
-66.182
-68.362
-68.007
-66.579
-65.394
-64.003
-62.63
-61.172
-59.299
-57.225
-55.145
-53.065
-51.069
-49.288
-47.798
-46.665
-45.986
-45.838
-46.284
-47.441
-49.391
-52.204
-56.027
-60.918
-66.818
-73.534
-80.62
-87.582
-94.049
-99.594
-103.682
-106.065
-106.773
-106.24
-105.65
-106.179
-108.627
-113.817
-122.419
-134.458
-149.323
-165.448
-179.84
-189.363
-191.411
-183.161
-162.028
-126.411
-75.723
-12.38
57.868
129.727
198.955
264.576
328.295
387.054
433.354
455.24
438.229
376.882
276.088
147.462
10.82
-115.671
-221.902
-300.329
-352.062
-384.975
-403.929
-414.667
-419.348
-414.208
-398.326
-372.745
-340.646
-308.101
-278.896
-254.691
-236.122
-222.801
-214.903
-212.376
-213.993
-218.223
-223.615
-228.726
-232.891
-235.753
-236.532
-234.898
-231.137
-225.702
-219.399
-213.199
-207.502
-202.486
-198.489
-195.55
-193.575
-192.443
-191.699
-190.82
-189.562
-187.795
-185.445
-182.571
-179.174
-175.235
-170.851
-166.128
-161.134
-155.925
-150.504
-144.861
-139.025
-133.044
-126.979
-120.881
-114.774
-108.666
-102.566
-96.473
-90.395
-84.33
-78.263
-72.184
-66.09
-59.982
-53.868
-47.754
-41.638
-35.516
-29.384
-23.24
-17.087
-10.932
-4.782
1.352
7.457
13.517
19.514
25.432
31.255
36.969
42.558
48.007
53.3
58.419
63.35
68.074
72.575
76.836
80.841
84.575
88.026
91.18
94.029
96.562
98.771
100.65
102.192
103.395
104.255
104.77
104.941
104.767
104.253
103.403
102.22
100.714
98.891
96.76
94.334
91.624
88.642
85.403
81.923
78.216
74.3
70.192
65.911
61.474
56.901
52.209
47.416
42.54
37.598
32.605
27.577
22.527
17.468
12.412
7.37
2.353
-2.632
-7.574
-12.467
-17.303
-22.078
-26.785
-31.423
-35.986
-40.474
-44.883
-49.213
-53.463
-57.634
-61.726
-65.74
-69.678
-73.543
-77.338
-81.067
-84.735
-88.346
-91.906
-95.419
-98.89
-102.322
-105.719
-109.084
-112.419
-115.725
-119.003
-122.255
-125.483
-128.689
-131.875
-135.045
-138.202
-141.347
-144.484
-147.611
-150.73
-153.836
-156.928
-160.001
-163.053
-166.082
-169.087
-172.066
-175.019
-177.942
-180.831
-183.677
-186.475
-189.215
-191.882
-194.468
-196.964
-199.371
-201.702
-203.967
-206.171
-208.311
-210.382
-212.377
-214.285
-216.085
-217.747
-219.235
-220.516
-221.57
-222.388
-222.959
-223.272
-223.294
-222.975
-222.279
-221.198
-219.745
-217.938
-215.8
-213.348
-210.617
-207.7
-204.719
-201.785
-199.006
-196.468
-194.219
-192.359
-191.073
-190.456
-190.461
-190.869
-191.226
-191.096
-190.211
-188.212
-184.637
-179.318
-172.38
-164.489
-157.029
-151.254
-148.033
-148.273
-152.608
-160.795
-171.952
-183.986
-193.494
-197.361
-192.648
-176.219
-145.656
-99.622
-39.427
30.246
104.159
176.906
246.992
317.433
385.922
447.595
491.845
498.358
456.853
366.756
235.19
88.255
-49.24
-161.958
-237.202
-279.381
-300.444
-306.884
-306.891
-301.763
-286.532
-261.309
-227.593
-189.013
-152.339
-121.004
-95.709
-76.362
-61.537
-49.966
-40.712
-32.374
-23.541
-13.492
-2.147
10.165
22.838
35.262
46.849
56.967
65.051
70.868
74.52
76.284
76.554
75.749
74.257
72.45
70.692
69.22
68.15
67.583
67.582
68.229
69.66
71.954
75.128
79.183
84.084
89.755
96.111
103.002
110.226
117.62
125.046
132.407
139.659
146.756
153.644
160.286
166.637
172.666
178.363
183.709
188.688
193.302
197.567
201.523
205.238
208.763
212.128
215.357
218.453
221.42
224.266
226.986
229.567
232.002
234.285
236.415
238.4
240.24
241.935
243.476
244.854
246.063
247.099
247.961
248.647
249.157
249.493
249.66
249.669
249.526
249.238
248.808
248.241
247.54
246.709
245.752
244.672
243.471
242.153
240.722
239.184
237.543
235.804
233.972
232.052
230.049
227.968
225.816
223.596
221.315
218.978
216.591
214.161
211.695
209.199
206.681
204.149
201.61
199.072
196.54
194.023
191.525
189.052
186.611
184.206
181.844
179.529
177.267
175.063
172.923
170.851
168.851
166.927
165.082
163.319
161.641
160.05
158.547
157.136
155.816
154.589
153.456
152.417
151.472
150.619
149.855
149.177
148.582
148.065
147.622
147.246
146.934
146.68
146.479
146.326
146.217
146.147
146.11
146.1
146.11
146.131
146.157
146.178
146.186
146.173
146.133
146.059
145.951
145.804
145.616
145.384
145.102
144.766
144.37
143.908
143.376
142.77
142.09
141.336
140.515
139.631
138.691
137.697
136.643
135.515
134.299
132.987
131.576
130.067
128.464
126.777
125.021
123.22
121.402
119.592
117.805
116.051
114.331
112.65
111.031
109.515
108.138
106.913
105.826
104.857
103.991
103.22
102.527
101.846
101.092
100.185
99.044
97.593
95.787
93.516
90.609
87.003
82.678
77.781
72.749
68.015
63.912
60.925
59.467
59.527
61.088
63.625
65.531
65.421
62.194
54.238
41.943
26.818
8.427
-11.543
-32.18
-53.045
-66.794
-67.107
-48.754
-8.072
48.889
116.427
191.765
271.953
356.636
439.029
503.549
535.858
527.028
478.632
404.613
319.694
233.436
150.32
68.938
-11.045
-85.818
-150.369
-199.487
-230.791
-245.312
-245.524
-234.605
-215.762
-192.305
-167.771
-145.369
-127.073
-113.563
-104.699
-99.819
-98.088
-98.477
-99.621
-100.098
-99.116
-96.547
-92.604
-87.746
-82.396
-76.888
-71.687
-67.301
-63.961
-61.655
-60.224
-59.386
-58.892
-58.57
-58.213
-57.605
-56.61
-55.128
-53.115
-50.588
-47.552
-44.01
-39.978
-35.478
-30.542
-25.229
-19.597
-13.699
-7.608
-1.388
4.887
11.14
17.311
23.357
29.242
34.946
40.45
45.737
50.799
55.631
60.229
64.588
68.704
72.572
76.19
79.56
82.684
85.569
88.219
90.633
92.811
94.754
96.461
97.934
99.171
100.172
100.939
101.476
101.793
101.897
101.799
101.508
101.035
100.392
99.59
98.641
97.555
96.345
95.022
93.598
92.086
90.5
88.852
87.154
85.419
83.659
81.886
80.109
78.339
76.585
74.855
73.158
71.502
69.893
68.336
66.838
65.402
64.033
62.731
61.5
60.338
59.246
58.223
57.266
56.374
55.543
54.769
54.047
53.374
52.744
52.151
51.589
51.05
50.529
50.019
49.514
49.005
48.488
47.955
47.401
46.819
46.204
45.549
44.85
44.102
43.299
42.438
41.516
40.531
39.479
38.362
37.177
35.926
34.609
33.228
31.783
30.278
28.715
27.098
25.432
23.721
21.97
20.187
18.377
16.549
14.707
12.857
11.001
9.143
7.289
5.441
3.602
1.775
-0.036
-1.823
-3.578
-5.293
-6.964
-8.586
-10.158
-11.676
-13.139
-14.547
-15.902
-17.201
-18.446
-19.631
-20.749
-21.799
-22.781
-23.701
-24.577
-25.42
-26.239
-27.045
-27.841
-28.624
-29.391
-30.127
-30.807
-31.416
-31.938
-32.36
-32.685
-32.899
-33
-32.986
-32.835
-32.531
-32.07
-31.455
-30.72
-29.92
-29.097
-28.305
-27.605
-27.052
-26.745
-26.774
-27.216
-28.172
-29.68
-31.804
-34.71
-38.438
-42.896
-47.871
-52.866
-57.374
-61.139
-63.798
-64.899
-64.443
-62.623
-60.027
-58.049
-57.87
-60.186
-65.82
-75.257
-87.978
-103.007
-118.547
-131.421
-138.657
-137.824
-126.404
-102.395
-65.209
-15.469
45.17
112.012
178.533
240.527
293.99
336.652
370.908
393.154
396.401
375.859
323.062
240.35
139.03
28.751
-74.057
-160.24
-227.337
-270.568
-295.1
-305.29
-302.976
-294.373
-279.634
-258.968
-236.042
-212.514
-191.392
-175.132
-163.436
-155.569
-150.526
-147.024
-143.794
-139.668
-133.961
-126.503
-117.615
-107.916
-97.9
-87.997
-78.748
-70.63
-63.905
-58.632
-54.652
-51.693
-49.543
-48.008
-46.885
-45.97
-45.054
-43.979
-42.668
-41.085
-39.214
-37.041
-34.55
-31.738
-28.641
-25.306
-21.787
-18.133
-14.389
-10.605
-6.843
-3.171
0.334
3.616
6.641
9.383
11.827
13.965
15.788
17.296
18.506
19.432
20.084
20.47
20.591
20.454
20.071
19.455
18.619
17.572
16.319
14.866
13.217
11.379
9.354
7.144
4.748
2.168
-0.59
-3.519
-6.611
-9.858
-13.253
-16.788
-20.451
-24.233
-28.126
-32.12
-36.206
-40.373
-44.611
-48.908
-53.252
-57.631
-62.034
-66.447
-70.858
-75.253
-79.619
-83.944
-88.214
-92.418
-96.541
-100.572
-104.499
-108.311
-111.997
-115.548
-118.954
-122.206
-125.297
-128.219
-130.966
-133.531
-135.91
-138.098
-140.094
-141.895
-143.5
-144.91
-146.127
-147.153
-147.991
-148.646
-149.122
-149.426
-149.564
-149.544
-149.374
-149.063
-148.622
-148.061
-147.392
-146.626
-145.776
-144.853
-143.869
-142.835
-141.762
-140.66
-139.541
-138.413
-137.288
-136.175
-135.087
-134.032
-133.02
-132.059
-131.156
-130.32
-129.556
-128.868
-128.258
-127.729
-127.284
-126.924
-126.652
-126.469
-126.375
-126.372
-126.462
-126.646
-126.921
-127.283
-127.731
-128.257
-128.858
-129.526
-130.251
-131.027
-131.849
-132.716
-133.625
-134.573
-135.554
-136.561
-137.588
-138.625
-139.665
-140.694
-141.698
-142.666
-143.601
-144.511
-145.414
-146.319
-147.221
-148.115
-149.001
-149.87
-150.709
-151.492
-152.169
-152.713
-153.12
-153.391
-153.547
-153.594
-153.515
-153.288
-152.89
-152.304
-151.54
-150.591
-149.437
-148.084
-146.546
-144.901
-143.291
-141.81
-140.535
-139.522
-138.769
-138.334
-138.329
-138.747
-139.496
-140.373
-140.993
-141.08
-140.471
-138.883
-136.117
-132.192
-127.272
-122.062
-117.694
-115.077
-115.03
-118.287
-124.933
-134.508
-146.039
-157.451
-166.122
-169.594
-165.287
-150.983
-125.619
-89.11
-42.466
11.66
69.717
127.648
180.649
223.903
253.325
265.7
258.931
232.64
188.01
127.738
56.02
-22.009
-100.797
-174.931
-239.229
-289.479
-323.277
-339.994
-340.526
-327.114
-302.941
-271.534
-237.025
-203.478
-173.547
-148.728
-129.653
-116.007
-106.993
-101.609
-98.211
-95.011
-91.083
-86.051
-79.929
-73.155
-66.117
-59.19
-53.021
-48.227
-45.034
-43.398
-43.023
-43.486
-44.498
-45.835
-47.248
-48.523
-49.484
-50.028
-50.149
-49.858
-49.143
-47.95
-46.188
-43.814
-40.867
-37.429
-33.633
-29.6
-25.412
-21.163
-16.95
-12.839
-8.887
-5.114
-1.504
1.946
5.222
8.301
11.134
13.696
15.988
18.026
19.841
21.464
22.91
24.207
25.385
26.465
27.456
28.355
29.14
29.8
30.329
30.728
31
31.146
31.163
31.052
30.812
30.439
29.935
29.297
28.518
27.599
26.539
25.342
24.017
22.57
21.008
19.337
17.564
15.697
13.743
11.71
9.603
7.429
5.196
2.915
0.593
-1.758
-4.129
-6.509
-8.887
-11.251
-13.591
-15.896
-18.156
-20.36
-22.499
-24.562
-26.541
-28.428
-30.213
-31.89
-33.452
-34.894
-36.211
-37.398
-38.453
-39.374
-40.159
-40.809
-41.324
-41.705
-41.953
-42.07
-42.061
-41.928
-41.677
-41.313
-40.844
-40.276
-39.618
-38.879
-38.067
-37.192
-36.263
-35.289
-34.28
-33.246
-32.195
-31.138
-30.085
-29.044
-28.024
-27.034
-26.08
-25.169
-24.305
-23.493
-22.737
-22.038
-21.399
-20.819
-20.302
-19.849
-19.464
-19.147
-18.899
-18.72
-18.609
-18.563
-18.579
-18.649
-18.765
-18.918
-19.101
-19.31
-19.538
-19.782
-20.037
-20.298
-20.56
-20.818
-21.064
-21.29
-21.484
-21.64
-21.754
-21.829
-21.878
-21.91
-21.933
-21.949
-21.951
-21.928
-21.867
-21.743
-21.525
-21.185
-20.697
-20.039
-19.201
-18.171
-16.946
-15.519
-13.863
-11.96
-9.805
-7.409
-4.821
-2.105
0.68
3.463
6.156
8.664
10.862
12.621
13.831
14.386
14.243
13.345
11.577
8.931
5.504
1.533
-2.542
-6.287
-9.41
-11.66
-12.792
-12.846
-12.019
-10.737
-9.817
-10.02
-11.926
-15.802
-21.466
-28.103
-34.46
-39.051
-39.963
-35.188
-22.78
-1.297
29.83
70.027
117.735
170.921
226.769
281.636
331.411
371.926
399.491
411.58
406.683
383.997
344.175
289.503
223.466
150.618
76.043
4.397
-59.82
-112.481
-151.098
-174.84
-184.15
-180.872
-167.753
-147.679
-124.128
-100.717
-79.796
-62.689
-49.974
-41.328
-36.024
-33.265
-31.706
-29.798
-26.757
-22.296
-16.449
-9.642
-2.255
5.413
12.846
19.466
25.004
29.395
32.75
35.339
37.352
38.938
40.288
41.601
43.066
44.816
46.911
49.357
52.158
55.319
58.849
62.749
66.986
71.515
76.286
81.249
86.365
91.587
96.861
102.128
107.323
112.397
117.319
122.066
126.621
130.972
135.105
139.011
142.694
146.159
149.403
152.427
155.223
157.788
160.124
162.233
164.116
165.774
167.201
168.394
169.349
170.062
170.528
170.741
170.694
170.382
169.802
168.956
167.842
166.464
164.822
162.918
160.759
158.35
155.696
152.805
149.683
146.34
142.786
139.033
135.094
130.981
126.71
122.294
117.75
113.095
108.345
103.518
98.63
93.7
88.745
83.783
78.831
73.908
69.028
64.209
59.468
54.818
50.277
45.856
41.57
37.432
33.452
29.641
26.006
22.554
19.292
16.224
13.352
10.678
8.202
5.923
3.84
1.949
0.246
-1.275
-2.619
-3.796
-4.812
-5.677
-6.4
-6.993
-7.464
-7.824
-8.082
-8.249
-8.335
-8.35
-8.302
-8.201
-8.057
-7.879
-7.676
-7.457
-7.23
-7.001
-6.776
-6.559
-6.354
-6.165
-5.992
-5.837
-5.699
-5.58
-5.48
-5.401
-5.345
-5.311
-5.3
-5.31
-5.342
-5.392
-5.457
-5.531
-5.608
-5.685
-5.759
-5.831
-5.9
-5.968
-6.038
-6.113
-6.193
-6.278
-6.366
-6.45
-6.527
-6.597
-6.665
-6.745
-6.855
-7.006
-7.21
-7.474
-7.791
-8.154
-8.544
-8.929
-9.287
-9.594
-9.83
-9.993
-10.077
-10.083
-10.012
-9.844
-9.557
-9.143
-8.592
-7.925
-7.198
-6.461
-5.787
-5.273
-4.982
-5.008
-5.458
-6.403
-7.926
-10.078
-12.859
-16.342
-20.655
-25.788
-31.605
-37.787
-43.773
-49.112
-53.483
-56.46
-57.676
-57.054
-54.871
-51.975
-49.698
-49.172
-51.214
-56.443
-64.949
-76.143
-88.584
-99.809
-106.828
-106.67
-96.428
-73.727
-37.244
11.836
69.475
130.995
192.427
253.584
316.144
377.499
430.608
462.29
458.364
413.013
327.612
212.132
82.937
-43.625
-150.311
-224.41
-262.208
-268.148
-255.035
-234.942
-213.678
-191.655
-164.539
-130.667
-92.965
-55.975
-24.784
-2.086
11.669
17.002
15.489
9.132
0.283
-8.643
-16.179
-21.475
-23.683
-22.483
-18.025
-10.8
-1.994
7.074
15.726
23.6
30.395
36.097
40.772
44.551
47.876
51.255
54.947
59.074
63.674
68.675
74.042
79.764
85.762
91.941
98.239
104.612
111.039
117.516
124.007
130.455
136.815
143.044
149.111
155
160.697
166.19
171.471
176.535
181.373
185.97
190.317
194.399
198.204
201.724
204.956
207.9
210.559
212.938
215.036
216.853
218.386
219.631
220.585
221.242
221.603
221.666
221.435
220.913
220.105
219.018
217.657
216.03
214.142
211.999
209.609
206.98
204.12
201.039
197.749
194.261
190.588
186.743
182.74
178.593
174.316
169.922
165.425
160.84
156.18
151.46
146.692
141.892
137.073
132.248
127.431
122.635
117.873
113.156
108.496
103.903
99.39
94.965
90.638
86.419
82.315
78.335
74.484
70.769
67.194
63.763
60.477
57.339
54.349
51.506
48.81
46.257
43.845
41.572
39.434
37.426
35.542
33.777
32.123
30.572
29.117
27.75
26.462
25.246
24.091
22.991
21.937
20.921
19.935
18.968
18.011
17.056
16.094
15.118
14.119
13.09
12.027
10.926
9.783
8.597
7.365
6.084
4.754
3.373
1.939
0.449
-1.1
-2.706
-4.368
-6.084
-7.849
-9.658
-11.503
-13.374
-15.263
-17.162
-19.066
-20.97
-22.871
-24.762
-26.635
-28.481
-30.292
-32.061
-33.778
-35.426
-36.996
-38.486
-39.901
-41.262
-42.581
-43.856
-45.086
-46.268
-47.396
-48.467
-49.458
-50.325
-51.033
-51.551
-51.868
-52.008
-51.975
-51.761
-51.352
-50.713
-49.839
-48.773
-47.537
-46.142
-44.609
-42.945
-41.232
-39.642
-38.322
-37.423
-37.056
-37.23
-38.025
-39.579
-41.907
-44.972
-48.572
-52.261
-55.713
-58.753
-61.114
-62.627
-63.306
-63.198
-62.84
-63.224
-65.142
-69.317
-76.323
-86.08
-98.005
-111.156
-123.671
-133.101
-137.145
-133.353
-119.687
-95.46
-60.959
-17.316
32.884
86.041
138.145
184.419
220.148
241.994
247.578
235.241
204.936
158.199
97.782
27.967
-46.128
-119.899
-189.087
-249.348
-297.28
-331.114
-350.331
-355.808
-349.739
-334.601
-312.904
-287.805
-262.333
-238.248
-216.914
-199.381
-185.606
-175.174
-167.757
-162.438
-158.279
-155.304
-153.17
-151.001
-148.637
-146.07
-143.17
-140.235
-137.361
-133.962
-129.984
-125.93
-121.915
-118.047
-114.382
-110.629
-106.749
-103.026
-99.449
-95.776
-91.876
-87.576
-82.819
-77.748
-72.403
-66.751
-60.836
-54.718
-48.48
-42.237
-36.062
-29.978
-24.01
-18.167
-12.466
-6.928
-1.565
3.623
8.641
13.498
18.197
22.735
27.114
31.33
35.385
39.286
43.038
46.645
50.11
53.427
56.597
59.621
62.5
65.232
67.813
70.236
72.498
74.598
76.537
78.316
79.938
81.401
82.708
83.863
84.868
85.725
86.436
87.002
87.427
87.715
87.869
87.896
87.801
87.593
87.277
86.862
86.358
85.772
85.115
84.395
83.622
82.808
81.963
81.097
80.222
79.349
78.489
77.652
76.85
76.092
75.387
74.745
74.173
73.681
73.274
72.961
72.746
72.636
72.635
72.748
72.976
73.321
73.785
74.366
75.063
75.874
76.795
77.82
78.947
80.167
81.475
82.865
84.327
85.854
87.437
89.066
90.731
92.423
94.131
95.844
97.554
99.251
100.924
102.566
104.167
105.72
107.218
108.652
110.015
111.303
112.509
113.628
114.656
115.592
116.432
117.177
117.826
118.381
118.844
119.216
119.502
119.702
119.819
119.853
119.806
119.679
119.476
119.197
118.847
118.429
117.951
117.422
116.848
116.235
115.59
114.915
114.217
113.497
112.76
112.007
111.243
110.47
109.695
108.924
108.16
107.404
106.649
105.877
105.073
104.227
103.334
102.391
101.404
100.378
99.332
98.301
97.317
96.415
95.622
94.956
94.436
94.078
93.899
93.933
94.212
94.732
95.47
96.394
97.446
98.58
99.741
100.805
101.63
102.066
101.964
101.199
99.691
97.328
93.949
89.509
84.065
77.814
71.172
64.52
58.125
52.391
47.811
44.534
42.491
41.306
40.007
37.862
34.445
28.954
20.763
10.218
-1.747
-13.55
-22.616
-26.657
-23.48
-10.03
16.247
55.06
103.815
159.477
219.103
283.785
356.43
434.09
507.501
560.809
577.429
550.223
484.162
394.612
298.32
206.531
123.185
45.736
-26.947
-92.314
-146.142
-183.734
-203.696
-207.848
-198.951
-180.075
-153.87
-123.078
-91.095
-60.513
-32.947
-9.658
9.034
22.956
31.499
34.995
34.723
31.664
26.957
22.002
17.388
13.676
11.88
12.263
14.528
18.451
23.315
28.152
32.59
36.335
38.956
40.439
40.907
40.45
39.463
38.417
37.5
36.836
36.506
36.438
36.602
36.99
37.5
38.032
38.534
38.955
39.275
39.492
39.567
39.458
39.139
38.582
37.778
36.73
35.441
33.92
32.182
30.237
28.096
25.763
23.24
20.531
17.641
14.576
11.347
7.964
4.439
0.781
-3
-6.902
-10.92
-15.058
-19.316
-23.695
-28.195
-32.812
-37.543
-42.384
-47.331
-52.38
-57.525
-62.764
-68.091
-73.506
-79.004
-84.581
-90.233
-95.954
-101.735
-107.572
-113.454
-119.375
-125.325
-131.296
-137.278
-143.262
-149.24
-155.202
-161.138
-167.037
-172.889
-178.684
-184.409
-190.055
-195.608
-201.058
-206.393
-211.604
-216.678
-221.605
-226.377
-230.983
-235.414
-239.662
-243.719
-247.577
-251.23
-254.672
-257.901
-260.912
-263.704
-266.277
-268.63
-270.766
-272.686
-274.393
-275.891
-277.183
-278.273
-279.167
-279.869
-280.387
-280.727
-280.898
-280.907
-280.762
-280.472
-280.044
-279.488
-278.812
-278.024
-277.132
-276.144
-275.069
-273.916
-272.692
-271.407
-270.067
-268.68
-267.251
-265.787
-264.291
-262.766
-261.216
-259.642
-258.046
-256.43
-254.796
-253.148
-251.488
-249.82
-248.148
-246.473
-244.799
-243.126
-241.454
-239.782
-238.107
-236.428
-234.742
-233.051
-231.355
-229.657
-227.957
-226.257
-224.554
-222.848
-221.139
-219.422
-217.692
-215.947
-214.184
-212.412
-210.649
-208.912
-207.209
-205.544
-203.916
-202.324
-200.765
-199.223
-197.673
-196.086
-194.431
-192.692
-190.866
-188.947
-186.93
-184.796
-182.504
-180.033
-177.388
-174.593
-171.675
-168.668
-165.593
-162.494
-159.476
-156.669
-154.195
-152.17
-150.678
-149.765
-149.51
-150.068
-151.492
-153.704
-156.489
-159.428
-162.148
-164.446
-166.005
-166.385
-165.456
-163.308
-160.391
-157.797
-156.386
-156.632
-159.328
-165.064
-173.541
-184.053
-195.022
-203.669
-207.79
-205.363
-193.45
-169.784
-133.428
-85.413
-29.617
29.312
88.272
147.489
207.88
266.265
314.75
339.271
326.113
271.616
182.3
73.932
-35.761
-135.998
-223.115
-298.266
-362.226
-413.056
-448.034
-464.767
-463.767
-447.895
-420.356
-385.078
-346.022
-306.689
-269.803
-237.303
-210.428
-189.797
-175.889
-168.518
-166.65
-168.804
-173.681
-180.007
-186.407
-191.893
-195.501
-196.604
-195.273
-191.888
-186.851
-180.769
-174.452
-168.404
-163.053
-158.664
-155.109
-152.217
-149.826
-147.637
-145.298
-142.609
-139.444
-135.759
-131.661
-127.22
-122.488
-117.556
-112.509
-107.418
-102.343
-97.322
-92.378
-87.534
-82.814
-78.237
-73.824
-69.581
-65.51
-61.604
-57.855
-54.26
-50.821
-47.54
-44.426
-41.483
-38.713
-36.118
-33.7
-31.458
-29.395
-27.508
-25.797
-24.262
-22.907
-21.737
-20.759
-19.977
-19.392
-19.002
-18.808
-18.805
-18.992
-19.366
-19.92
-20.65
-21.552
-22.623
-23.857
-25.248
-26.791
-28.475
-30.293
-32.234
-34.287
-36.439
-38.679
-40.992
-43.366
-45.785
-48.237
-50.706
-53.179
-55.641
-58.079
-60.477
-62.823
-65.103
-67.304
-69.414
-71.42
-73.313
-75.081
-76.716
-78.209
-79.553
-80.741
-81.768
-82.63
-83.321
-83.84
-84.184
-84.353
-84.348
-84.17
-83.822
-83.309
-82.636
-81.81
-80.839
-79.73
-78.493
-77.137
-75.672
-74.108
-72.455
-70.725
-68.929
-67.077
-65.182
-63.254
-61.306
-59.346
-57.386
-55.434
-53.5
-51.59
-49.712
-47.873
-46.077
-44.332
-42.64
-41.006
-39.435
-37.928
-36.487
-35.114
-33.807
-32.566
-31.391
-30.277
-29.223
-28.224
-27.28
-26.387
-25.546
-24.755
-24.013
-23.318
-22.669
-22.063
-21.499
-20.971
-20.471
-19.993
-19.535
-19.092
-18.664
-18.249
-17.846
-17.456
-17.078
-16.714
-16.36
-16.012
-15.66
-15.3
-14.933
-14.561
-14.201
-13.863
-13.554
-13.285
-13.056
-12.863
-12.696
-12.536
-12.346
-12.098
-11.769
-11.337
-10.795
-10.129
-9.32
-8.356
-7.209
-5.855
-4.275
-2.461
-0.432
1.773
4.097
6.47
8.807
11.022
13
14.623
15.809
16.46
16.515
15.905
14.461
12.121
8.965
5.199
1.203
-2.609
-5.955
-8.421
-9.394
-8.648
-6.311
-2.924
0.457
3.02
4.023
2.508
-2.338
-10.784
-20.94
-29.938
-36.173
-37.478
-34.36
-27.006
-8.854
24.256
75.072
144.332
222.42
300.759
376.53
448.846
518.184
582.478
630.514
643.482
611.33
530.528
405.671
259.032
109.57
-25.28
-125.278
-187.007
-212.816
-210.232
-197.473
-183.841
-171.647
-159.993
-141.755
-115.053
-83.317
-49.919
-18.952
7.586
29.884
47.873
61.323
70.456
75.874
78.206
78.05
76.241
73.755
71.553
70.723
71.834
74.846
79.654
86.015
93.393
101.088
108.525
115.198
120.87
125.661
129.708
133.184
136.386
139.66
143.24
147.272
151.796
156.717
161.953
167.441
173.089
178.809
184.527
190.186
195.74
201.162
206.419
211.479
216.314
220.902
225.228
229.289
233.088
236.634
239.934
242.991
245.804
248.368
250.682
252.743
254.555
256.121
257.443
258.526
259.374
259.994
260.389
260.56
260.508
260.228
259.72
258.988
258.037
256.872
255.501
253.929
252.165
250.218
248.097
245.809
243.362
240.764
238.024
235.152
232.159
229.056
225.855
222.569
219.211
215.794
212.332
208.837
205.323
201.802
198.286
194.79
191.324
187.901
184.532
181.229
178.003
174.865
171.823
168.888
166.067
163.369
160.8
158.366
156.074
153.926
151.928
150.081
148.389
146.852
145.47
144.242
143.165
142.236
141.451
140.803
140.285
139.892
139.613
139.442
139.368
139.384
139.479
139.643
139.867
140.138
140.447
140.784
141.137
141.496
141.85
142.189
142.505
142.788
143.031
143.224
143.36
143.432
143.435
143.362
143.209
142.972
142.645
142.229
141.722
141.123
140.434
139.655
138.788
137.837
136.805
135.695
134.507
133.244
131.905
130.494
129.012
127.461
125.842
124.158
122.413
120.617
118.774
116.888
114.964
113.001
111.002
108.969
106.904
104.805
102.674
100.511
98.322
96.117
93.9
91.668
89.416
87.127
84.789
82.397
79.944
77.429
74.858
72.241
69.6
66.974
64.393
61.877
59.447
57.106
54.871
52.767
50.813
49.039
47.472
46.125
45
44.082
43.322
42.658
42.018
41.31
40.448
39.339
37.884
36.007
33.611
30.634
26.999
22.554
17.257
11.181
4.529
-2.265
-8.731
-14.543
-19.256
-22.295
-23.501
-22.979
-21.22
-19.449
-18.698
-19.593
-23.028
-29.771
-39.628
-51.798
-64.542
-74.813
-80.016
-77.873
-65.383
-39.942
-0.058
53.356
116.377
184.261
252.285
319.615
388.801
457.596
522.119
572.288
589.34
563.229
489.51
372.248
233.202
93.813
-25.842
-109.551
-157.203
-175.741
-176.828
-172.633
-167.44
-160.628
-148.434
-128.732
-103.941
-78.46
-56.911
-41.463
-31.678
-26.245
-23.634
-22.545
-21.771
-20.02
-16.541
-11.241
-4.403
3.419
11.723
20.106
28.046
35.028
40.796
45.334
48.81
51.499
53.615
55.339
56.862
58.384
60.088
62.102
64.482
67.241
70.385
73.914
77.838
82.158
86.837
91.83
97.088
102.56
108.203
113.968
119.794
125.615
131.357
136.962
142.395
147.626
152.635
157.409
161.932
166.197
170.211
173.979
177.503
180.784
183.816
186.6
189.139
191.44
193.509
195.351
196.964
198.349
199.506
200.435
201.136
201.605
201.837
201.831
201.589
201.114
200.41
199.484
198.34
196.985
195.428
193.677
191.74
189.625
187.342
184.899
182.306
179.575
176.718
173.745
170.671
167.506
164.266
160.962
157.609
154.219
150.806
147.382
143.96
140.554
137.176
133.839
130.555
127.335
124.192
121.137
118.177
115.324
112.585
109.966
107.474
105.113
102.888
100.803
98.859
97.06
95.406
93.897
92.533
91.31
90.228
89.28
88.462
87.769
87.194
86.73
86.371
86.108
85.934
85.842
85.823
85.87
85.974
86.126
86.317
86.539
86.784
87.043
87.31
87.578
87.84
88.093
88.332
88.553
88.754
88.931
89.081
89.203
89.295
89.357
89.389
89.391
89.365
89.313
89.24
89.148
89.043
88.926
88.803
88.674
88.543
88.41
88.275
88.14
88.005
87.872
87.745
87.626
87.521
87.434
87.37
87.332
87.322
87.338
87.378
87.439
87.522
87.628
87.757
87.909
88.087
88.298
88.544
88.829
89.141
89.46
89.769
90.061
90.331
90.583
90.821
91.047
91.272
91.526
91.835
92.228
92.716
93.287
93.93
94.647
95.453
96.385
97.465
98.68
99.997
101.401
102.868
104.388
105.936
107.414
108.713
109.738
110.399
110.648
110.477
109.825
108.546
106.605
104.078
101.194
98.42
96.143
94.576
94.014
94.829
97.072
100.561
104.74
108.313
110.152
109.566
105.686
97.972
86.862
73.238
58.744
46.43
39.022
38.622
48.012
69.378
103.282
149.557
205.498
265.187
323.343
376.303
423.14
465.516
504.142
535.039
546.15
524.231
459.466
350.402
213.609
73.543
-45.005
-122.43
-157.186
-160.028
-146.795
-132.054
-120.649
-110.484
-96.542
-76.352
-52.368
-28.633
-9.194
4.157
12.159
16.171
17.633
18.101
18.929
20.903
24.368
29.217
35.001
41.301
47.779
53.938
59.23
63.387
66.351
68.257
69.404
70.032
70.323
70.493
70.766
71.291
72.176
73.468
75.145
77.205
79.649
82.464
85.636
89.136
92.913
96.918
101.106
105.421
109.802
114.187
118.503
122.696
126.731
130.579
134.224
137.652
140.852
143.819
146.554
149.056
151.326
153.363
155.16
156.717
158.035
159.119
159.972
160.597
160.992
161.153
161.079
160.765
160.209
159.405
158.348
157.034
155.464
153.639
151.563
149.241
146.676
143.873
140.842
137.587
134.117
130.439
126.56
122.489
118.237
113.814
109.232
104.503
99.639
94.655
89.563
84.379
79.116
73.789
68.412
63
57.566
52.127
46.697
41.288
35.916
30.592
25.33
20.142
15.037
10.028
5.121
0.325
-4.351
-8.903
-13.325
-17.613
-21.762
-25.771
-29.637
-33.359
-36.936
-40.371
-43.664
-46.82
-49.84
-52.73
-55.495
-58.141
-60.675
-63.102
-65.431
-67.668
-69.821
-71.898
-73.909
-75.863
-77.767
-79.632
-81.466
-83.278
-85.076
-86.87
-88.665
-90.469
-92.287
-94.127
-95.992
-97.887
-99.816
-101.782
-103.788
-105.838
-107.933
-110.074
-112.262
-114.498
-116.78
-119.11
-121.486
-123.909
-126.377
-128.89
-131.449
-134.055
-136.71
-139.414
-142.167
-144.97
-147.825
-150.73
-153.684
-156.682
-159.721
-162.8
-165.918
-169.074
-172.267
-175.5
-178.777
-182.099
-185.472
-188.897
-192.371
-195.889
-199.448
-203.047
-206.688
-210.378
-214.12
-217.915
-221.768
-225.679
-229.642
-233.645
-237.659
-241.65
-245.594
-249.467
-253.251
-256.94
-260.518
-263.977
-267.319
-270.533
-273.616
-276.57
-279.382
-282.051
-284.614
-287.116
-289.62
-292.213
-294.946
-297.856
-301.009
-304.452
-308.239
-312.437
-317.064
-322.118
-327.653
-333.731
-340.336
-347.362
-354.493
-361.234
-367.169
-371.921
-375.085
-376.385
-375.794
-373.55
-370.461
-367.777
-366.545
-367.717
-372.154
-380.024
-390.826
-403.517
-415.912
-425.103
-428.578
-423.743
-407.93
-380.069
-340.4
-289.783
-232.298
-172.965
-114.852
-63.326
-21.146
10.688
26.262
23.519
-1.869
-55.496
-133.271
-233.077
-345.429
-453.436
-548.098
-617.662
-658.815
-680.849
-689.466
-692.602
-694.156
-689.419
-676.771
-656.406
-630.626
-604.814
-582.07
-563.434
-549.119
-538.487
-531.602
-528.784
-529.306
-532.314
-536.877
-541.779
-546.497
-550.864
-554.315
-556.268
-556.66
-555.54
-553.327
-550.923
-548.734
-546.818
-545.359
-544.47
-544.141
-544.388
-544.984
-545.434
-545.487
-545.064
-544.116
-542.712
-540.889
-538.636
-536.026
-533.185
-530.198
-527.139
-524.056
-520.955
-517.875
-514.863
-511.95
-509.174
-506.554
-504.092
-501.795
-499.66
-497.68
-495.852
-494.174
-492.646
-491.272
-490.049
-488.978
-488.059
-487.288
-486.662
-486.179
-485.83
-485.61
-485.519
-485.556
-485.721
-486.019
-486.447
-487.002
-487.68
-488.478
-489.389
-490.41
-491.534
-492.755
-494.067
-495.466
-496.95
-498.513
-500.151
-501.859
-503.63
-505.457
-507.333
-509.252
-511.204
-513.181
-515.173
-517.173
-519.171
-521.158
-523.125
-525.061
-526.958
-528.806
-530.597
-532.321
-533.969
-535.533
-537.005
-538.377
-539.639
-540.786
-541.81
-542.703
-543.458
-544.069
-544.53
-544.834
-544.976
-544.95
-544.751
-544.376
-543.821
-543.083
-542.16
-541.051
-539.756
-538.275
-536.611
-534.766
-532.744
-530.547
-528.183
-525.656
-522.972
-520.137
-517.158
-514.042
-510.797
-507.429
-503.947
-500.358
-496.672
-492.896
-489.041
-485.113
-481.123
-477.078
-472.987
-468.858
-464.7
-460.52
-456.326
-452.124
-447.923
-443.729
-439.55
-435.391
-431.258
-427.155
-423.087
-419.058
-415.07
-411.126
-407.227
-403.374
-399.568
-395.812
-392.108
-388.458
-384.866
-381.333
-377.861
-374.452
-371.107
-367.823
-364.6
-361.431
-358.313
-355.243
-352.217
-349.235
-346.295
-343.395
-340.536
-337.714
-334.924
-332.161
-329.419
-326.685
-323.952
-321.213
-318.464
-315.715
-312.971
-310.236
-307.507
-304.777
-302.031
-299.254
-296.425
-293.512
-290.483
-287.31
-283.963
-280.437
-276.728
-272.834
-268.745
-264.43
-259.863
-255.036
-249.961
-244.671
-239.196
-233.569
-227.828
-222.038
-216.286
-210.669
-205.278
-200.179
-195.427
-191.042
-187.082
-183.685
-180.868
-178.526
-176.422
-174.11
-171.192
-167.433
-162.49
-155.933
-147.707
-137.994
-127.326
-116.928
-107.856
-100.798
-96.649
-95.951
-98.297
-102.854
-108.055
-111.071
-109.301
-100.452
-81.729
-51.274
-8.863
44.947
108.177
176.972
247.227
314.351
372.49
416.519
442.791
448.461
432.445
395.741
340.46
270.323
191.064
108.735
29.045
-42.427
-101.154
-144.006
-169.313
-177.299
-170.024
-150.491
-122.148
-88.853
-54.407
-22.128
5.77
28.33
45.56
58.134
67.012
73.428
78.861
84.693
91.687
100.01
109.492
119.717
130.293
140.834
150.846
159.861
167.688
174.381
180.134
185.233
189.915
194.357
198.764
203.357
208.292
213.655
219.474
225.726
232.391
239.473
246.964
254.838
263.048
271.534
280.241
289.122
298.127
307.197
316.272
325.283
334.181
342.935
351.524
359.932
368.149
376.161
383.961
391.551
398.931
406.102
413.061
419.8
426.317
432.614
438.692
444.553
450.194
455.61
460.796
465.747
470.456
474.918
479.124
483.066
486.739
490.14
493.268
496.122
498.703
501.01
503.046
504.815
506.32
507.566
508.556
509.297
509.796
510.061
510.103
509.931
509.557
508.992
508.249
507.342
506.283
505.087
503.767
502.339
500.816
499.214
497.549
495.836
494.09
492.326
490.559
488.805
487.078
485.391
483.759
482.195
480.71
479.318
478.03
476.854
475.801
474.878
474.093
473.451
472.958
472.616
472.427
472.394
472.516
472.792
473.22
473.797
474.519
475.38
476.374
477.494
478.732
480.079
481.525
483.06
484.674
486.355
488.092
489.875
491.69
493.527
495.372
497.214
499.04
500.84
502.6
504.312
505.963
507.547
509.053
510.476
511.809
513.046
514.183
515.217
516.145
516.965
517.675
518.276
518.768
519.154
519.437
519.621
519.709
519.708
519.623
519.461
519.228
518.93
518.571
518.156
517.691
517.182
516.633
516.05
515.44
514.81
514.172
513.536
512.907
512.292
511.695
511.12
510.568
510.04
509.536
509.055
508.599
508.17
507.776
507.419
507.097
506.805
506.526
506.247
505.958
505.65
505.314
504.955
504.58
504.208
503.872
503.594
503.391
503.276
503.249
503.316
503.488
503.768
504.17
504.708
505.387
506.206
507.153
508.167
509.18
510.107
510.835
511.292
511.397
511.054
510.198
508.742
506.601
503.75
500.113
495.572
490.139
483.922
477.174
470.396
464.042
458.495
454.27
451.742
450.957
451.699
453.232
454.448
454.431
452.318
447.283
439.135
428.4
416.336
405.145
397.258
395.208
401.903
419.658
449.898
491.793
541.58
596.517
654.746
715.226
779.294
841.359
890.22
915.8
906.538
861.67
791.938
707.516
620.836
538.967
460.484
386.381
318.533
259.598
214.925
186.682
173.747
174.149
184.77
202.378
224.029
246.591
267.141
283.969
296.555
305.01
309.891
311.959
312.162
311.709
311.806
313.061
315.502
318.902
322.868
327.044
331.117
334.666
337.261
338.727
339.131
338.658
337.581
336.136
334.483
332.812
331.336
330.201
329.491
329.238
329.415
330
330.992
332.377
334.122
336.182
338.494
340.995
343.632
346.343
349.063
351.724
354.252
356.591
358.705
360.568
362.163
363.48
364.506
365.236
365.674
365.823
365.685
365.264
364.556
363.566
362.301
360.769
358.982
356.946
354.667
352.148
349.396
346.415
343.21
339.786
336.145
332.293
328.237
323.987
319.554
314.948
310.178
305.255
300.192
294.999
289.686
284.263
278.74
273.127
267.434
261.671
255.848
249.976
244.063
238.119
232.153
226.174
220.191
214.21
208.239
202.282
196.347
190.439
184.561
178.718
172.913
167.15
161.432
155.761
150.14
144.571
139.056
133.596
128.193
122.847
117.559
112.331
107.161
102.052
97.001
92.011
87.079
82.206
77.389
72.629
67.922
63.267
58.662
54.105
49.593
45.122
40.691
36.298
31.939
27.613
23.316
19.048
14.805
10.586
6.39
2.213
-1.947
-6.092
-10.226
-14.349
-18.466
-22.578
-26.689
-30.8
-34.913
-39.028
-43.147
-47.27
-51.397
-55.528
-59.661
-63.794
-67.927
-72.057
-76.182
-80.299
-84.406
-88.497
-92.571
-96.623
-100.651
-104.652
