ecg_data_columns
-45.328
-45.461
-45.591
-45.714
-45.824
-45.919
-45.991
-46.035
-46.044
-46.014
-45.939
-45.813
-45.629
-45.381
-45.061
-44.664
-44.184
-43.615
-42.952
-42.191
-41.329
-40.369
-39.314
-38.166
-36.929
-35.607
-34.208
-32.739
-31.204
-29.605
-27.945
-26.23
-24.47
-22.677
-20.865
-19.044
-17.225
-15.423
-13.652
-11.927
-10.255
-8.635
-7.072
-5.577
-4.172
-2.891
-1.761
-0.797
-0.018
0.568
0.955
1.141
1.149
1.024
0.803
0.518
0.187
-0.189
-0.584
-0.958
-1.267
-1.451
-1.474
-1.315
-0.944
-0.357
0.414
1.316
2.251
3.109
3.796
4.201
4.201
3.684
2.507
0.55
-2.325
-6.365
-11.672
-18.161
-25.598
-33.414
-40.957
-47.746
-53.167
-56.406
-57.112
-55.451
-52.119
-48.808
-47.258
-48.58
-53.92
-64.397
-80.099
-99.9
-121.475
-140.724
-152.955
-154.081
-139.959
-106.199
-51.208
22.464
111.214
209.732
315.184
431.561
559.509
691.479
812.444
897.263
922.934
882.381
781.055
635.407
468.33
296.331
131.965
-11.289
-124.243
-201.254
-241.58
-255.17
-255.35
-250.601
-245.179
-237.05
-221.32
-198.217
-171.158
-144.238
-121.832
-104.939
-92.422
-83.515
-77.475
-73.8
-71.714
-70.033
-67.685
-64.332
-60.265
-55.745
-50.675
-44.752
-38.081
-31.244
-25.127
-20.295
-16.749
-14.355
-13.047
-12.904
-13.941
-15.835
-17.946
-19.755
-21.025
-21.672
-21.742
-21.212
-19.986
-18.078
-15.611
-12.712
-9.492
-6.011
-2.265
1.715
5.85
10.045
14.184
18.185
22.012
25.633
29.031
32.194
35.108
37.779
40.232
42.482
44.54
46.408
48.079
49.551
50.832
51.935
52.871
53.649
54.268
54.727
55.025
55.157
55.117
54.897
54.484
53.869
53.05
52.022
50.786
49.339
47.682
45.813
43.734
41.445
38.947
36.24
33.326
30.207
26.889
23.375
19.674
15.79
11.733
7.512
3.136
-1.381
-6.03
-10.797
-15.668
-20.628
-25.66
-30.749
-35.877
-41.024
-46.173
-51.303
-56.394
-61.425
-66.376
-71.227
-75.956
-80.544
-84.97
-89.214
-93.258
-97.083
-100.672
-104.008
-107.075
-109.86
-112.348
-114.529
-116.393
-117.93
-119.135
-120
-120.522
-120.7
-120.531
-120.017
-119.16
-117.965
-116.436
-114.583
-112.413
-109.938
-107.169
-104.12
-100.805
-97.242
-93.447
-89.44
-85.238
-80.864
-76.337
-71.68
-66.913
-62.059
-57.139
-52.173
-47.184
-42.191
-37.213
-32.27
-27.378
-22.557
-17.821
-13.186
-8.665
-4.273
-0.019
4.084
8.027
11.803
15.403
18.822
22.055
25.098
27.948
30.605
33.068
35.34
37.425
39.325
41.048
42.599
43.986
45.217
46.302
47.248
48.064
48.761
49.348
49.834
50.228
50.54
50.777
50.949
51.062
51.122
51.136
51.106
51.037
50.931
50.791
50.618
50.413
50.177
49.908
49.607
49.273
48.903
48.492
48.033
47.516
46.934
46.276
45.532
44.689
43.737
42.667
41.475
40.156
38.707
37.12
35.391
33.515
31.49
29.313
26.984
24.502
21.874
19.108
16.218
13.225
10.144
6.984
3.754
0.45
-2.93
-6.375
-9.875
-13.416
-16.975
-20.526
-24.029
-27.424
-30.66
-33.688
-36.463
-38.958
-41.133
-42.947
-44.356
-45.295
-45.699
-45.538
-44.804
-43.494
-41.64
-39.268
-36.413
-33.185
-29.711
-26.134
-22.604
-19.233
-16.086
-13.266
-10.964
-9.316
-8.354
-7.893
-7.449
-6.573
-5.017
-2.542
1.295
6.854
14.18
22.77
31.202
38.064
42.75
44.71
43.105
37.439
27.842
16.719
9.351
10.273
21.486
40.977
64.466
91.67
126.22
175.589
247.716
342.486
454.574
576.462
696.187
803.015
886.167
927.846
913.799
838.226
701.061
518.99
317.924
120.086
-50.472
-178.772
-264.525
-311.093
-330.424
-337.941
-339.678
-337.831
-330.842
-313.53
-286.675
-255.049
-223.325
-196.486
-176.311
-161.845
-152.065
-146.102
-143.172
-142.195
-142.025
-141.514
-140.164
-138.233
-136.009
-133.521
-130.752
-128.102
-126.254
-126.101
-128.141
-132.28
-138.295
-145.96
-155.146
-165.569
-176.651
-187.673
-198.082
-207.629
-216.194
-223.711
-230.007
-234.858
-238.194
-240.061
-240.531
-239.674
-237.534
-234.17
-229.73
-224.464
-218.6
-212.306
-205.692
-198.805
-191.703
-184.451
-177.114
-169.744
-162.372
-155.021
-147.728
-140.535
-133.471
-126.545
-119.732
-112.977
-106.248
-99.536
-92.851
-86.221
-79.678
-73.254
-66.995
-60.96
-55.203
-49.773
-44.708
-40.038
-35.799
-32.031
-28.778
-26.084
-23.989
-22.525
-21.725
-21.613
-22.212
-23.535
-25.59
-28.376
-31.89
-36.13
-41.089
-46.759
-53.128
-60.178
-67.89
-76.243
-85.208
-94.754
-104.845
-115.443
-126.504
-137.985
-149.839
-162.016
-174.467
-187.139
-199.98
-212.938
-225.96
-238.992
-251.983
-264.88
-277.633
-290.194
-302.515
-314.548
-326.252
-337.584
-348.506
-358.983
-368.983
-378.475
-387.434
-395.837
-403.663
-410.897
-417.526
-423.54
-428.932
-433.7
-437.845
-441.372
-444.288
-446.604
-448.332
-449.491
-450.096
-450.17
-449.734
-448.812
-447.428
-445.608
-443.378
-440.766
-437.799
-434.504
-430.907
-427.037
-422.921
-418.583
-414.05
-409.346
-404.496
-399.522
-394.445
-389.288
-384.067
-378.803
-373.511
-368.206
-362.904
-357.617
-352.356
-347.131
-341.95
-336.822
-331.752
-326.745
-321.804
-316.933
-312.134
-307.408
-302.757
-298.182
-293.683
-289.262
-284.918
-280.652
-276.465
-272.357
-268.329
-264.381
-260.514
-256.728
-253.025
-249.404
-245.867
-242.415
-239.049
-235.769
-232.576
-229.47
-226.451
-223.519
-220.673
-217.912
-215.235
-212.642
-210.13
-207.698
-205.345
-203.069
-200.865
-198.731
-196.661
-194.651
-192.695
-190.786
-188.915
-187.073
-185.252
-183.442
-181.633
-179.812
-177.969
-176.09
-174.164
-172.178
-170.12
-167.977
-165.736
-163.386
-160.916
-158.316
-155.577
-152.692
-149.654
-146.46
-143.106
-139.591
-135.915
-132.078
-128.08
-123.922
-119.605
-115.132
-110.509
-105.74
-100.832
-95.797
-90.645
-85.39
-80.047
-74.629
-69.147
-63.615
-58.039
-52.423
-46.78
-41.12
-35.462
-29.832
-24.246
-18.71
-13.236
-7.829
-2.489
2.793
8.044
13.303
18.596
23.94
29.338
34.779
40.27
45.832
51.504
57.32
63.285
69.385
75.593
81.929
88.417
95.017
101.633
108.118
114.317
120.209
125.891
131.278
136.113
140.128
142.988
144.65
145.411
145.258
143.982
141.847
139.539
138.158
139.176
143.212
149.963
159.564
172.182
187.205
203.404
218.434
229.319
234.642
234.37
228.208
216.402
200.381
182.578
167.406
160.136
164.655
183.892
220.734
277.425
353.331
444.239
544.097
645.622
745.505
847.213
951.073
1052.511
1141.401
1194.9
1192.506
1125.329
991.498
807.716
602.34
400.812
231.198
111.835
42.986
17.697
18.145
24.032
27.324
26.404
25.447
31.271
43.352
57.377
69.203
74.943
74.25
69.054
61.001
51.963
43.657
37.319
33.595
32.37
33.06
34.864
37.089
39.187
40.522
40.478
38.766
35.409
30.623
24.793
18.237
11.175
3.897
-3.307
-10.177
-16.432
-21.895
-26.489
-30.136
-32.79
-34.428
-35.013
-34.558
-33.132
-30.796
-27.618
-23.668
-18.994
-13.672
-7.796
-1.469
5.193
12.101
19.197
26.426
33.749
41.131
48.537
55.953
63.381
70.814
78.235
85.624
92.953
100.199
107.346
114.378
121.276
128.019
134.578
140.929
147.046
152.902
158.468
163.711
168.599
173.104
177.202
180.871
184.095
186.855
189.137
190.929
192.223
193.011
193.288
193.048
192.289
191.013
189.223
186.926
184.131
180.849
177.096
172.889
168.248
163.197
157.759
151.961
145.833
139.405
132.711
125.783
118.657
111.37
103.958
96.461
88.918
81.367
73.847
66.397
59.056
51.86
44.847
38.052
31.509
25.251
19.31
13.716
8.498
3.682
-0.708
-4.65
-8.125
-11.116
-13.61
-15.594
-17.061
-18.006
-18.423
-18.314
-17.679
-16.523
-14.851
-12.674
-10.001
-6.846
-3.223
0.851
5.357
10.276
15.587
21.268
27.295
33.646
40.294
47.216
54.385
61.775
69.361
77.117
85.015
93.03
101.136
109.308
117.521
125.751
133.973
142.166
150.306
158.371
166.341
174.195
181.913
189.475
196.863
204.057
211.041
217.797
224.307
230.555
236.526
242.204
247.574
252.622
257.332
261.691
265.686
269.304
272.532
275.358
277.77
279.759
281.313
282.424
283.082
283.281
283.012
282.27
281.051
279.349
277.164
274.493
271.337
267.696
263.575
258.979
253.913
248.385
242.407
235.99
229.148
221.897
214.255
206.241
197.874
189.178
180.176
170.895
161.359
151.597
141.638
131.513
121.252
110.889
100.456
89.984
79.508
69.061
58.675
48.383
38.214
28.199
18.366
8.743
-0.643
-9.768
-18.61
-27.149
-35.365
-43.244
-50.77
-57.936
-64.737
-71.171
-77.235
-82.932
-88.267
-93.245
-97.875
-102.166
-106.123
-109.756
-113.077
-116.101
-118.849
-121.34
-123.595
-125.636
-127.487
-129.173
-130.717
-132.135
-133.436
-134.633
-135.745
-136.793
-137.81
-138.822
-139.846
-140.906
-142.017
-143.182
-144.398
-145.645
-146.883
-148.08
-149.218
-150.271
-151.233
-152.087
-152.797
-153.34
-153.683
-153.787
-153.631
-153.175
-152.394
-151.327
-150.024
-148.554
-147.013
-145.433
-143.854
-142.38
-141.068
-139.999
-139.284
-138.928
-139.021
-139.792
-141.249
-143.261
-145.574
-147.526
-148.464
-148.013
-145.503
-140.195
-132.039
-121.328
-108.836
-96.31
-85.499
-77.523
-73.715
-75.488
-81.366
-88.985
-97.215
-102.112
-102.409
-97.825
-80.192
-42.959
17.929
104.412
207.503
316.606
427.467
540.092
654.318
764.531
855.135
902.529
892.121
822.966
704.298
554.983
392.846
230.498
81.919
-37.411
-118.106
-156.788
-160.324
-146.278
-126.456
-105.367
-81.356
-47.052
-1.23
51.866
107.235
159.26
205.474
245.449
277.615
300.906
315.32
321.399
320.339
313.019
299.913
281.945
261.02
239.278
217.955
197.461
177.668
158.414
139.782
121.724
103.64
84.628
64.203
42.385
19.601
-3.486
-26.344
-48.513
-69.39
-88.263
-104.55
-117.909
-128.222
-135.572
-140.128
-142.069
-141.636
-139.135
-134.849
-129.036
-121.989
-113.999
-105.307
-96.144
-86.709
-77.18
-67.801
-58.787
-50.29
-42.415
-35.199
-28.636
-22.724
-17.432
-12.686
-8.404
-4.473
-0.76
2.803
6.251
9.61
12.882
16.097
19.281
22.418
25.472
28.401
31.155
33.699
35.999
37.98
39.558
40.642
41.122
40.933
40.037
38.396
35.999
32.848
28.956
24.377
19.183
13.415
7.105
0.266
-7.116
-15.033
-23.474
-32.437
-41.889
-51.806
-62.175
-72.963
-84.146
-95.736
-107.758
-120.282
-133.398
-147.134
-161.485
-176.414
-191.821
-207.595
-223.606
-239.672
-255.65
-271.415
-286.841
-301.845
-316.341
-330.199
-343.28
-355.405
-366.359
-376
-384.232
-390.985
-396.276
-400.152
-402.706
-404.109
-404.508
-404.01
-402.718
-400.692
-397.985
-394.696
-390.925
-386.791
-382.46
-378.052
-373.663
-369.385
-365.244
-361.238
-357.331
-353.422
-349.424
-345.294
-341.002
-336.547
-331.949
-327.202
-322.31
-317.285
-312.107
-306.768
-301.267
-295.593
-289.762
-283.81
-277.787
-271.768
-265.827
-260.011
-254.358
-248.892
-243.621
-238.557
-233.699
-229.036
-224.561
-220.273
-216.169
-212.252
-208.517
-204.953
-201.544
-198.269
-195.104
-192.028
-189.024
-186.07
-183.152
-180.255
-177.367
-174.48
-171.586
-168.672
-165.726
-162.734
-159.682
-156.556
-153.343
-150.03
-146.606
-143.062
-139.392
-135.591
-131.657
-127.591
-123.393
-119.066
-114.615
-110.046
-105.366
-100.584
-95.709
-90.753
-85.729
-80.65
-75.534
-70.397
-65.257
-60.134
-55.047
-50.017
-45.065
-40.212
-35.48
-30.89
-26.468
-22.237
-18.222
-14.451
-10.949
-7.743
-4.858
-2.321
-0.155
1.619
2.978
3.906
4.383
4.391
3.914
2.937
1.445
-0.578
-3.147
-6.278
-9.987
-14.283
-19.173
-24.664
-30.76
-37.462
-44.769
-52.673
-61.164
-70.229
-79.861
-90.051
-100.787
-112.049
-123.811
-136.046
-148.727
-161.833
-175.34
-189.218
-203.444
-218.002
-232.889
-248.114
-263.689
-279.609
-295.865
-312.441
-329.309
-346.434
-363.786
-381.302
-398.922
-416.594
-434.236
-451.791
-469.204
-486.392
-503.291
-519.847
-535.932
-551.438
-566.395
-580.795
-594.719
-608.317
-621.522
-634.283
-646.781
-659.198
-671.55
-683.852
-695.837
-707.072
-717.647
-727.699
-737.083
-745.605
-753.048
-759.295
-764.958
-771.121
-778.388
-787.532
-799.55
-815.333
-836.462
-863.135
-892.371
-920.752
-944.982
-964.107
-982.907
-1004.762
-1026.447
-1039.266
-1027.38
-975.714
-881.256
-749.734
-593.17
-429.826
-276.271
-148.057
-64.028
-38.711
-76.961
-176.147
-323.61
-499.275
-685.636
-864.721
-1016.134
-1125.764
-1186.293
-1199.669
-1182.279
-1152.771
-1121.735
-1092.584
-1059.255
-1013.699
-955.786
-889.461
-820.204
-753.7
-691.821
-635.035
-585.245
-543.753
-510.931
-486.694
-470.149
-460.582
-457.6
-460.094
-465.727
-471.825
-476.595
-479.17
-479.332
-477.054
-472.252
-465.134
-456.64
-448.127
-440.493
-434.059
-428.763
-424.264
-420.214
-416.312
-412.039
-406.725
-399.977
-391.656
-381.791
-370.598
-358.308
-345.101
-331.235
-317.01
-302.596
-288.104
-273.602
-259.107
-244.684
-230.415
-216.34
-202.483
-188.869
-175.51
-162.426
-149.629
-137.083
-124.741
-112.554
-100.462
-88.442
-76.493
-64.611
-52.807
-41.092
-29.481
-18.004
-6.699
4.408
15.294
25.941
36.332
46.438
56.23
65.683
74.774
83.485
91.801
99.711
107.207
114.289
120.96
127.227
133.103
138.597
143.719
148.481
152.897
156.98
160.747
164.216
167.406
170.336
173.03
175.515
177.816
179.96
181.975
183.888
185.729
187.525
189.304
191.094
192.921
194.813
196.795
198.89
201.123
203.514
206.084
208.851
211.832
215.039
218.486
222.183
226.14
230.362
234.857
239.627
244.675
250.001
255.604
261.48
267.627
274.038
280.705
287.62
294.772
302.152
309.748
317.547
325.537
333.705
342.037
350.52
359.141
367.885
376.742
385.698
394.742
403.864
413.054
422.305
431.609
440.959
450.35
459.777
469.236
478.723
488.237
497.776
507.338
516.926
526.538
536.177
545.844
555.542
565.272
575.038
584.842
594.685
604.57
614.499
624.475
634.498
644.57
654.692
664.864
675.085
685.355
695.67
706.027
716.422
726.85
737.305
747.781
758.27
768.764
779.256
789.737
800.197
810.626
821.013
831.347
841.616
851.808
861.91
871.91
881.795
891.553
901.173
910.641
919.946
929.077
938.023
946.771
955.311
963.633
971.726
979.581
987.191
994.546
1001.639
1008.464
1015.012
1021.278
1027.254
1032.933
1038.308
1043.372
1048.116
1052.531
1056.612
1060.35
1063.741
1066.778
1069.456
1071.771
1073.719
1075.299
1076.511
1077.348
1077.809
1077.89
1077.59
1076.909
1075.848
1074.406
1072.587
1070.391
1067.828
1064.908
1061.645
1058.05
1054.131
1049.893
1045.349
1040.529
1035.463
1030.189
1024.746
1019.177
1013.537
1007.903
1002.344
996.923
991.688
986.668
981.903
977.437
973.326
969.639
966.422
963.696
961.481
959.784
958.605
957.945
957.756
957.929
958.361
958.967
959.693
960.544
961.523
962.591
963.682
964.706
965.587
966.307
966.888
967.321
967.528
967.505
967.443
967.775
969.167
972.201
977.161
984.268
993.892
1006.234
1021.156
1038.008
1055.26
1071.421
1085.766
1097.567
1105.958
1110.557
1111.286
1110.229
1112.359
1121.921
1142.095
1171.654
1204.96
1239.501
1273.806
1313.311
1370.703
1452.41
1562.668
1697.039
1835.745
1958.216
2042.296
2065.777
2019.75
1904.826
1727.734
1508.829
1274.55
1050.076
863.263
731.003
652.482
617.663
604.844
592.641
573.009
544.81
513.678
486.669
463.258
440.468
415.333
384.944
350.103
313.371
276.726
242.579
212.803
188.033
168.487
153.878
143.431
136.386
132.075
129.724
128.562
128.105
128.037
128.186
128.595
129.344
130.48
132.086
134.226
136.788
139.562
142.281
144.546
145.985
146.262
144.988
141.818
136.494
128.827
118.693
105.946
90.356
71.669
49.667
24.218
-4.635
-36.791
-72.07
-110.002
-150.067
-191.688
-234.151
-276.975
-319.807
-362.078
-403.277
-443.19
-481.404
-517.595
-551.577
-582.503
-609.592
-632.659
-651.497
-665.798
-675.552
-680.459
-680.228
-675.723
-667.799
-656.844
-643.429
-628.048
-611.109
-593.578
-576.432
-559.689
-543.319
-527.431
-511.932
-496.982
-482.742
-468.963
-455.367
-441.995
-428.867
-416.003
-403.476
-391.121
-378.721
-366.127
-353.167
-339.702
-325.651
-310.941
-295.521
-279.407
-262.643
-245.315
-227.539
-209.405
-190.996
-172.386
-153.641
-134.856
-116.135
-97.588
-79.326
-61.428
-43.951
-26.947
-10.454
5.506
20.916
35.787
50.136
63.971
77.292
90.1
102.39
114.17
125.449
136.235
146.534
156.353
165.694
174.558
182.945
190.851
198.267
205.184
211.585
217.46
222.796
227.581
231.801
235.443
238.488
240.916
242.709
243.844
244.294
244.035
243.036
241.271
238.71
235.324
231.085
225.964
219.935
212.97
205.043
196.132
186.213
175.268
163.281
150.237
136.127
120.942
104.68
87.34
68.928
49.451
28.922
7.359
-15.216
-38.777
-63.292
-88.724
-115.031
-142.167
-170.082
-198.718
-228.016
-257.913
-288.341
-319.23
-350.504
-382.089
-413.905
-445.871
-477.907
-509.928
-541.85
-573.589
-605.062
-636.187
-666.881
-697.066
-726.664
-755.599
-783.801
-811.201
-837.733
-863.336
-887.953
-911.532
-934.026
-955.393
-975.597
-994.608
-1012.402
-1028.961
-1044.275
-1058.336
-1071.146
-1082.71
-1093.038
-1102.147
-1110.058
-1116.799
-1122.399
-1126.895
-1130.328
-1132.745
-1134.199
-1134.745
-1134.44
-1133.345
-1131.522
-1129.037
-1125.951
-1122.327
-1118.222
-1113.696
-1108.81
-1103.626
-1098.206
-1092.607
-1086.882
-1081.086
-1075.269
-1069.476
-1063.748
-1058.114
-1052.596
-1047.219
-1042.011
-1037.004
-1032.236
-1027.738
-1023.529
-1019.624
-1016.031
-1012.748
-1009.763
-1007.043
-1004.534
-1002.185
-999.949
-997.782
-995.646
-993.491
-991.258
-988.881
-986.279
-983.377
-980.116
-976.467
-972.413
-967.965
-963.134
-957.948
-952.502
-946.903
-941.262
-935.688
-930.259
-925.052
-920.228
-916.035
-912.591
-909.913
-907.885
-906.104
-904.199
-901.843
-898.442
-893.289
-886.121
-876.907
-865.938
-854.529
-843.992
-835.42
-830.808
-830.521
-832.299
-834.533
-834.994
-834.179
-837.481
-845.18
-852.179
-846.671
-810.994
-737.259
-627.267
-491.34
-345.367
-198.438
-58.079
67.512
167.423
223.787
223.922
162.841
47.204
-100.731
-257.324
-398.974
-509.161
-588.18
-642.425
-683.628
-722.691
-760.084
-791.699
-810.931
-812.648
-797.28
-768.91
-733.246
-694.793
-656.12
-618.381
-582.115
-548.629
-520.057
-498.078
-483.271
-475.322
-473.269
-476.185
-483.195
-492.861
-502.957
-511.296
-516.554
-518.166
-516.212
-511.076
-503.124
-493.093
-482.249
-471.716
-462.12
-453.701
-446.313
-439.655
-433.53
-427.62
-421.419
-414.595
-406.995
-398.585
-389.502
-379.888
-369.81
-359.36
-348.66
-337.783
-326.792
-315.747
-304.645
-293.503
-282.352
-271.208
-260.094
-249.025
-237.999
-227.011
-216.066
-205.167
-194.325
-183.557
-172.877
-162.3
-151.841
-141.506
-131.308
-121.258
-111.368
-101.648
-92.109
-82.764
-73.632
-64.738
-56.102
-47.743
-39.678
-31.923
-24.495
-17.409
-10.682
-4.327
1.64
7.205
12.35
17.059
21.318
25.114
28.436
31.276
33.627
35.484
36.845
37.708
38.076
37.951
37.338
36.243
34.675
32.644
30.162
27.246
23.911
20.178
16.066
11.601
6.807
1.712
-3.655
-9.265
-15.085
-21.083
-27.224
-33.474
-39.796
-46.153
-52.508
-58.824
-65.063
-71.188
-77.163
-82.952
-88.522
-93.84
-98.874
-103.595
-107.976
-111.989
-115.61
-118.817
-121.588
-123.906
-125.755
-127.121
-127.995
-128.367
-128.234
-127.591
-126.44
-124.782
-122.623
-119.97
-116.833
-113.224
-109.156
-104.648
-99.718
-94.386
-88.675
-82.61
-76.214
-69.514
-62.538
-55.312
-47.866
-40.229
-32.428
-24.495
-16.46
-8.352
-0.202
7.961
16.107
24.207
32.234
40.161
47.962
55.613
63.091
70.373
77.44
84.272
90.852
97.164
103.195
108.932
114.366
119.488
124.293
128.777
132.936
136.771
140.28
143.466
146.331
148.88
151.118
153.053
154.693
156.048
157.131
157.954
158.532
158.88
159.014
158.952
158.709
158.305
157.755
157.079
156.294
155.418
154.47
153.467
152.428
151.368
150.304
149.25
148.221
147.228
146.281
145.391
144.564
143.809
143.133
142.542
142.039
141.628
141.312
141.092
140.969
140.937
140.992
141.123
141.32
141.572
141.866
142.189
142.524
142.86
143.185
143.492
143.771
144.008
144.191
144.306
144.341
144.285
144.124
143.847
143.446
142.918
142.265
141.495
140.608
139.605
138.479
137.212
135.791
134.211
132.464
130.551
128.482
126.272
123.955
121.579
119.184
116.812
114.5
112.276
110.181
108.249
106.516
105.043
103.893
103.106
102.707
102.689
103.014
103.668
104.626
105.811
107.129
108.45
109.659
110.675
111.426
111.814
111.616
110.659
108.951
106.641
104.103
101.79
100.067
99.381
100.479
103.826
109.262
116.329
123.922
130.534
134.887
135.437
130.259
119.786
107.133
95.087
86.119
78.94
69.338
58.829
56.529
77.213
133.553
228.152
350.698
483.546
616.593
745.05
866.275
977.953
1061.605
1093.237
1058.029
947.358
774.967
572.509
369.539
197.959
77.93
8.02
-19.798
-23.064
-21.487
-21.346
-22.725
-20.91
-7.99
16.729
48.801
82.704
112.77
136.756
155.174
169.045
179.113
185.248
187.95
188.464
187.888
187.5
187.893
188.894
190.811
194.298
199.375
205.718
212.725
219.307
224.956
229.711
233.422
235.956
237.341
237.665
237.347
237.066
237.195
237.868
239.162
241.04
243.52
246.659
250.389
254.579
259.138
263.999
269.15
274.602
280.321
286.238
292.266
298.329
304.393
310.438
316.454
322.438
328.384
334.293
340.185
346.073
351.962
357.85
363.726
369.576
375.4
381.197
386.968
392.71
398.415
404.067
409.651
415.145
420.526
425.768
430.838
435.707
440.35
444.741
448.856
452.673
456.165
459.31
462.085
464.467
466.435
467.968
469.044
469.648
469.763
469.378
468.483
467.068
465.129
462.663
459.67
456.154
452.119
447.574
442.528
436.997
430.997
424.548
417.67
410.388
402.729
394.722
386.398
377.789
368.929
359.853
350.597
341.198
331.694
322.121
312.518
302.921
293.367
283.893
274.533
265.322
256.293
247.476
238.9
230.594
222.583
214.89
207.535
200.538
193.915
187.68
181.843
176.414
171.399
166.8
162.621
158.858
155.509
152.569
150.028
147.878
146.106
144.7
143.643
142.92
142.513
142.404
142.572
142.999
143.664
144.546
145.624
146.878
148.287
149.831
151.488
153.241
155.068
156.951
158.873
160.816
162.764
164.7
166.611
168.482
170.3
172.054
173.731
175.322
176.817
178.207
179.485
180.644
181.678
182.582
183.353
183.985
184.477
184.827
185.032
185.093
185.007
184.775
184.396
183.872
183.202
182.388
181.431
180.332
179.093
177.715
176.201
174.552
172.772
170.862
168.826
166.669
164.392
162.001
159.499
156.89
154.181
151.375
148.48
145.5
142.442
139.311
136.114
132.86
129.554
126.204
122.816
119.399
115.959
112.505
109.044
105.583
102.129
98.689
95.271
91.882
88.527
85.213
81.945
78.727
75.563
72.457
69.407
66.413
63.474
60.586
57.747
54.953
52.2
49.482
46.798
44.145
41.519
38.916
36.324
33.734
31.137
28.525
25.888
23.218
20.504
17.739
14.925
12.063
9.149
6.172
3.109
-0.063
-3.347
-6.753
-10.282
-13.926
-17.678
-21.516
-25.389
-29.257
-33.083
-36.839
-40.52
-44.115
-47.588
-50.899
-53.992
-56.817
-59.36
-61.605
-63.529
-65.155
-66.531
-67.747
-68.95
-70.253
-71.74
-73.508
-75.648
-78.269
-81.508
-85.463
-90.258
-96.072
-102.972
-110.908
-119.661
-128.733
-137.544
-145.568
-152.173
-156.657
-158.577
-157.851
-155.012
-151.246
-147.85
-145.903
-146.355
-150.127
-157.776
-168.98
-181.97
-193.823
-201.223
-200.695
-188.925
-162.561
-118.039
-54.325
25.347
116.688
214.729
316.732
426.232
544.281
664.405
774.438
852.524
875.879
835.553
731.597
575.286
391.447
200.661
23.386
-119.472
-222.792
-286.849
-318.955
-336.816
-348.456
-355.447
-356.136
-342.76
-314.517
-277.111
-236.513
-199.105
-168.223
-143.774
-125.511
-113.672
-107.741
-106.215
-107.218
-108.932
-109.852
-109.469
-107.551
-103.31
-96.49
-87.577
-77.273
-66.645
-56.818
-48.187
-40.866
-35.163
-31.077
-28.438
-27.018
-26.208
-25.286
-23.888
-21.819
-18.954
-15.338
-10.954
-5.751
0.169
6.668
13.648
21.021
28.755
36.855
45.265
53.9
62.658
71.42
80.113
88.696
97.131
105.396
113.466
121.318
128.952
136.38
143.602
150.61
157.388
163.91
170.167
176.156
181.874
187.32
192.485
197.356
201.918
206.158
210.057
213.598
216.759
219.518
221.857
223.763
225.223
226.229
226.772
226.844
226.438
225.55
224.178
222.319
219.973
217.139
213.822
210.029
205.766
201.044
195.875
190.274
184.258
177.845
171.055
163.909
156.431
148.644
140.573
132.245
123.686
114.923
105.983
96.895
87.686
78.386
69.022
59.621
50.211
40.819
31.469
22.187
12.997
3.921
-5.02
-13.805
-22.415
-30.834
-39.043
-47.031
-54.783
-62.289
-69.541
-76.531
-83.255
-89.709
-95.891
-101.802
-107.443
-112.815
-117.922
-122.769
-127.36
-131.701
-135.799
-139.66
-143.293
-146.705
-149.905
-152.9
-155.7
-158.313
-160.747
-163.01
-165.111
-167.056
-168.855
-170.513
-172.039
-173.438
-174.719
-175.888
-176.95
-177.912
-178.778
-179.554
-180.244
-180.852
-181.383
-181.84
-182.227
-182.55
-182.812
-183.019
-183.175
-183.285
-183.356
-183.393
-183.403
-183.391
-183.365
-183.332
-183.299
-183.275
-183.267
-183.285
-183.337
-183.431
-183.577
-183.781
-184.052
-184.397
-184.823
-185.336
-185.943
-186.648
-187.457
-188.374
-189.402
-190.546
-191.805
-193.182
-194.676
-196.286
-198.008
-199.838
-201.772
-203.802
-205.923
-208.126
-210.402
-212.74
-215.131
-217.561
-220.018
-222.489
-224.957
-227.408
-229.825
-232.194
-234.5
-236.726
-238.857
-240.879
-242.778
-244.543
-246.16
-247.619
-248.907
-250.015
-250.936
-251.663
-252.19
-252.513
-252.631
-252.544
-252.259
-251.781
-251.117
-250.277
-249.27
-248.108
-246.804
-245.371
-243.818
-242.157
-240.399
-238.563
-236.667
-234.731
-232.771
-230.804
-228.849
-226.923
-225.047
-223.231
-221.48
-219.803
-218.21
-216.723
-215.375
-214.187
-213.173
-212.344
-211.705
-211.258
-211.002
-210.913
-210.945
-211.058
-211.213
-211.383
-211.56
-211.714
-211.803
-211.779
-211.573
-211.144
-210.474
-209.531
-208.306
-206.82
-205.114
-203.275
-201.437
-199.707
-198.201
-197.046
-196.361
-196.276
-196.893
-198.321
-200.721
-204.177
-208.668
-214.019
-219.821
-225.624
-231.072
-235.749
-239.106
-240.705
-240.326
-238.302
-235.644
-233.357
-232.089
-232.449
-235.143
-240.865
-250.181
-260.979
-268.528
-268.992
-258.752
-239.001
-215.897
-189.775
-159.192
-118.532
-53.567
39.928
161.24
309.24
468.232
623.221
758.87
846.686
865.829
805.855
663.736
462.548
238.4
22.679
-153.345
-275.71
-350.828
-388.393
-405.342
-416.81
-424.9
-428.252
-422.087
-400.688
-366.069
-323.925
-280.189
-240.867
-208.742
-184.265
-167.852
-159.155
-157.307
-160.9
-167.949
-176.52
-184.758
-191.323
-195.173
-195.568
-192.425
-186.244
-177.891
-168.488
-159.289
-151.077
-144.36
-139.475
-136.337
-134.723
-134.265
-134.33
-134.255
-133.642
-132.267
-130.053
-127.07
-123.334
-118.865
-113.777
-108.188
-102.187
-95.831
-89.128
-82.084
-74.754
-67.225
-59.602
-51.976
-44.394
-36.889
-29.487
-22.205
-15.063
-8.072
-1.222
5.487
12.044
18.435
24.634
30.625
36.406
41.973
47.326
52.462
57.372
62.043
66.463
70.615
74.479
78.034
81.257
84.128
86.631
88.752
90.481
91.806
92.718
93.207
93.267
92.894
92.08
90.822
89.119
86.969
84.375
81.342
77.876
73.984
69.677
64.968
59.87
54.398
48.571
42.406
35.924
29.147
22.099
14.804
7.289
-0.418
-8.288
-16.291
-24.393
-32.564
-40.771
-48.981
-57.161
-65.278
-73.302
-81.2
-88.942
-96.5
-103.844
-110.947
-117.782
-124.325
-130.553
-136.445
-141.981
-147.144
-151.919
-156.293
-160.255
-163.796
-166.909
-169.589
-171.834
-173.641
-175.013
-175.953
-176.465
-176.559
-176.243
-175.529
-174.431
-172.965
-171.146
-168.992
-166.523
-163.758
-160.717
-157.421
-153.891
-150.148
-146.213
-142.109
-137.855
-133.473
-128.983
-124.405
-119.758
-115.06
-110.329
-105.579
-100.828
-96.09
-91.379
-86.708
-82.09
-77.537
-73.061
-68.672
-64.38
-60.193
-56.117
-52.158
-48.321
-44.609
-41.025
-37.57
-34.246
-31.053
-27.993
-25.067
-22.276
-19.62
-17.099
-14.712
-12.46
-10.342
-8.359
-6.51
-4.795
-3.215
-1.77
-0.463
0.706
1.737
2.629
3.383
4.001
4.486
4.844
5.079
5.196
5.2
5.094
4.882
4.564
4.144
3.619
2.989
2.256
1.425
0.505
-0.493
-1.559
-2.68
-3.841
-5.027
-6.221
-7.41
-8.588
-9.746
-10.874
-11.956
-12.965
-13.885
-14.71
-15.439
-16.076
-16.629
-17.11
-17.548
-17.993
-18.491
-19.088
-19.802
-20.62
-21.533
-22.536
-23.621
-24.793
-26.021
-27.245
-28.415
-29.488
-30.413
-31.15
-31.607
-31.647
-31.159
-30.045
-28.262
-25.83
-22.761
-19.067
-14.791
-9.976
-4.727
0.79
6.443
12.124
17.715
23.112
28.148
32.606
36.311
39.122
40.946
41.757
41.505
40.146
37.692
34.154
29.606
24.172
17.928
10.938
3.315
-4.82
-13.311
-21.997
-30.786
-39.608
-48.386
-57.012
-65.381
-73.532
-81.448
-88.907
-95.512
-100.607
-103.543
-104.005
-101.639
-95.855
-86.473
-73.808
-58.78
-43.284
-28.986
-16.997
-8.816
-5.907
-8.796
-15.763
-22.635
-24.612
-18.337
-5.036
12.403
35.978
70.874
125.779
209.672
320.916
451.531
593.419
735.416
868.027
981.791
1056.499
1070.209
1009.783
871.005
670.916
441.669
214.005
16.344
-135.824
-240.086
-299.27
-320.627
-311.322
-279.632
-234.758
-188.195
-151.118
-127.572
-115.483
-105.568
-88.457
-62.024
-30.179
-1.454
18.208
28.28
31.258
31.037
29.665
27.739
26.302
26.332
28.54
33.261
40.078
48.418
58.005
68.361
78.573
87.778
95.46
101.489
106.147
109.884
113.038
115.967
119.151
122.936
127.503
132.934
139.153
146.035
153.499
161.449
169.769
178.394
187.276
196.353
205.583
214.888
224.162
233.331
242.338
251.14
259.716
268.049
276.126
283.953
291.55
298.923
306.07
312.981
319.64
326.042
332.186
338.076
343.714
349.1
354.232
359.107
363.718
368.055
372.104
375.849
379.27
382.355
385.091
387.469
389.482
391.12
392.374
393.238
393.705
393.768
393.418
392.648
391.452
389.823
387.761
385.263
382.328
378.96
375.161
370.938
366.298
361.25
355.806
349.977
343.779
337.227
330.34
323.136
315.635
307.861
299.836
291.585
283.133
274.508
265.736
256.844
247.862
238.817
229.738
220.655
211.595
202.588
193.661
184.844
176.163
167.644
159.313
151.193
143.306
135.672
128.31
121.235
114.461
108
101.862
96.054
90.582
85.449
80.657
76.203
72.085
68.298
64.835
61.688
58.846
56.298
54.03
52.029
50.278
48.761
47.461
46.359
45.437
44.673
44.05
43.545
43.14
42.815
42.549
42.325
42.124
41.929
41.723
41.492
41.221
40.897
40.509
40.047
39.502
38.865
38.13
37.293
36.349
35.295
34.131
32.854
31.467
29.969
28.365
26.656
24.847
22.943
20.95
18.874
16.723
14.503
12.223
9.892
7.516
5.105
2.668
0.212
-2.254
-4.724
-7.191
-9.648
-12.089
-14.51
-16.904
-19.27
-21.602
-23.897
-26.153
-28.367
-30.537
-32.662
-34.74
-36.77
-38.752
-40.685
-42.571
-44.409
-46.2
-47.945
-49.644
-51.301
-52.916
-54.492
-56.032
-57.536
-59.009
-60.452
-61.871
-63.266
-64.642
-65.999
-67.341
-68.669
-69.987
-71.293
-72.59
-73.88
-75.166
-76.453
-77.748
-79.055
-80.38
-81.73
-83.112
-84.531
-85.991
-87.492
-89.034
-90.619
-92.251
-93.933
-95.668
-97.457
-99.299
-101.196
-103.15
-105.161
-107.222
-109.322
-111.455
-113.619
-115.825
-118.09
-120.426
-122.84
-125.333
-127.909
-130.567
-133.298
-136.077
-138.862
-141.605
-144.272
-146.834
-149.268
-151.538
-153.595
-155.375
-156.815
-157.869
-158.503
-158.702
-158.465
-157.813
-156.793
-155.48
-153.994
-152.47
-151.051
-149.886
-149.12
-148.889
-149.374
-150.82
-153.399
-157.149
-161.918
-167.314
-172.871
-178.163
-182.69
-185.801
-186.974
-186.046
-183.458
-180.314
-177.956
-177.556
-180.103
-186.603
-197.722
-213.235
-231.53
-249.68
-264.037
-270.742
-266.082
-246.129
-206.844
-146.624
-68.052
24.248
124.021
227.445
338.333
459.378
587.466
712.563
808.485
845.692
807.023
685.685
498.655
281.677
66.775
-114.395
-243.082
-322.726
-361.669
-375.833
-383.371
-389.551
-394.589
-394.876
-383.4
-359.908
-328.665
-294.926
-264.204
-238.622
-218.185
-202.355
-190.323
-182.242
-177.854
-175.997
-176.037
-177.185
-178.288
-179.005
-178.944
-177.22
-173.665
-168.565
-162.039
-154.706
-147.459
-140.596
-134.37
-129.145
-124.873
-121.399
-118.554
-115.877
-112.838
-109.186
-104.778
-99.533
-93.513
-86.752
-79.287
-71.245
-62.77
-53.961
-44.889
-35.605
-26.143
-16.571
-6.992
2.516
11.894
21.102
30.118
38.931
47.526
55.899
64.063
72.025
79.785
87.343
94.685
101.803
108.695
115.364
121.813
128.046
134.062
139.859
145.431
150.77
155.866
160.703
165.267
169.543
173.52
177.189
180.541
183.568
186.261
188.611
190.613
192.255
193.529
194.425
194.934
195.048
194.762
194.068
192.965
191.447
189.514
187.166
184.405
181.235
177.66
173.686
169.323
164.582
159.474
154.013
148.217
142.102
135.689
128.999
122.054
114.88
107.501
99.944
92.238
84.409
76.487
68.502
60.481
52.456
44.455
36.508
28.644
20.891
13.277
5.828
-1.43
-8.475
-15.283
-21.834
-28.112
-34.098
-39.779
-45.144
-50.183
-54.888
-59.255
-63.282
-66.968
-70.315
-73.328
-76.014
-78.38
-80.439
-82.2
-83.679
-84.89
-85.85
-86.575
-87.084
-87.396
-87.528
-87.502
-87.336
-87.05
-86.664
-86.197
-85.668
-85.095
-84.495
-83.885
-83.282
-82.698
-82.148
-81.644
-81.197
-80.816
-80.51
-80.286
-80.148
-80.102
-80.15
-80.294
-80.534
-80.869
-81.299
-81.819
-82.427
-83.12
-83.892
-84.739
-85.655
-86.635
-87.672
-88.762
-89.898
-91.075
-92.286
-93.526
-94.791
-96.075
-97.374
-98.685
-100.003
-101.325
-102.649
-103.973
-105.295
-106.611
-107.922
-109.226
-110.523
-111.814
-113.099
-114.378
-115.65
-116.918
-118.182
-119.443
-120.699
-121.95
-123.195
-124.434
-125.665
-126.886
-128.095
-129.287
-130.461
-131.611
-132.736
-133.829
-134.886
-135.9
-136.867
-137.779
-138.632
-139.42
-140.137
-140.778
-141.341
-141.826
-142.23
-142.551
-142.786
-142.935
-142.996
-142.967
-142.841
-142.616
-142.286
-141.853
-141.321
-140.695
-139.976
-139.168
-138.274
-137.3
-136.259
-135.153
-133.978
-132.735
-131.433
-130.089
-128.74
-127.409
-126.105
-124.836
-123.605
-122.414
-121.266
-120.139
-118.991
-117.782
-116.48
-115.072
-113.568
-111.955
-110.2
-108.253
-106.048
-103.558
-100.796
-97.767
-94.487
-90.992
-87.342
-83.656
-80.097
-76.804
-73.907
-71.51
-69.721
-68.685
-68.533
-69.456
-71.692
-75.311
-80.253
-86.303
-93.024
-99.996
-106.85
-113.019
-117.847
-120.916
-122.036
-121.673
-120.861
-120.385
-120.888
-122.86
-126.574
-132.346
-140.149
-148.584
-155.201
-157.501
-152.766
-138.933
-114.507
-77.223
-24.883
42.952
125.102
217.558
313.286
406.414
493.206
574.635
654.497
732.391
800.903
839.553
825.431
746.713
605.171
426.515
244.907
84.017
-41.213
-134.951
-210.854
-274.942
-330.998
-375.466
-399.794
-401.687
-381.506
-343.429
-295.392
-243.164
-191.49
-143.949
-102.552
-69.802
-47.357
-35.018
-31.846
-36.108
-45.343
-57.642
-70.912
-82.368
-90.299
-94.047
-93.409
-89.031
-81.917
-72.759
-62.61
-52.98
-44.699
-38.099
-33.286
-29.819
-27.195
-25.126
-23.151
-20.709
-17.538
-13.51
-8.588
-2.945
3.285
10.04
17.2
24.659
32.357
40.216
48.177
56.201
64.209
72.133
79.931
87.56
94.996
102.229
109.243
116.037
122.621
128.997
135.156
141.084
146.765
152.189
157.354
162.26
166.908
171.296
175.42
179.279
182.867
186.175
189.193
191.903
194.29
196.343
198.053
199.413
200.418
201.062
201.339
201.246
200.778
199.932
198.703
197.088
195.081
192.682
189.893
186.714
183.149
179.202
174.881
170.192
165.147
159.756
154.032
147.987
141.639
135.003
128.099
120.947
113.569
105.986
98.225
90.309
82.266
74.123
65.907
57.647
49.371
41.108
32.886
24.735
16.681
8.752
0.975
-6.622
-14.016
-21.181
-28.096
-34.738
-41.088
-47.128
-52.843
-58.218
-63.243
-67.906
-72.201
-76.123
-79.667
-82.832
-85.619
-88.032
-90.075
-91.755
-93.08
-94.062
-94.713
-95.045
-95.074
-94.815
-94.286
-93.504
-92.486
-91.251
-89.819
-88.208
-86.436
-84.523
-82.486
-80.346
-78.118
-75.82
-73.468
-71.078
-68.664
-66.239
-63.816
-61.408
-59.023
-56.672
-54.362
-52.103
-49.899
-47.758
-45.684
-43.679
-41.748
-39.893
-38.116
-36.417
-34.798
-33.258
-31.797
-30.415
-29.112
-27.886
-26.737
-25.663
-24.662
-23.735
-22.878
-22.089
-21.366
-20.707
-20.109
-19.57
-19.089
-18.664
-18.291
-17.968
-17.694
-17.465
-17.279
-17.133
-17.022
-16.943
-16.892
-16.865
-16.858
-16.864
-16.879
-16.895
-16.907
-16.91
-16.895
-16.855
-16.783
-16.671
-16.514
-16.305
-16.039
-15.709
-15.312
-14.846
-14.31
-13.705
-13.03
-12.285
-11.473
-10.595
-9.654
-8.652
-7.589
-6.467
-5.291
-4.069
-2.808
-1.518
-0.209
1.111
2.431
3.736
5.015
6.268
7.485
8.66
9.777
10.809
11.736
12.548
13.235
13.787
14.206
14.495
14.674
14.782
14.855
14.92
14.991
15.063
15.148
15.265
15.444
15.727
16.133
16.661
17.314
18.111
19.033
20.025
20.983
21.752
22.222
22.34
22.06
21.336
20.087
18.208
15.608
12.239
8.057
2.965
-3.081
-10.021
-17.576
-25.151
-32.054
-37.694
-41.535
-43.016
-41.835
-38.024
-32.085
-25.342
-19.267
-14.935
-13.31
-15.18
-20.694
-29.212
-39.064
-47.065
-49.669
-43.928
-26.814
4.515
52.014
116.594
195.821
283.496
373.66
460.473
542.463
622.951
699.237
766.298
812.911
818.732
775.21
680.542
538.878
372.618
199.416
34.989
-98.308
-193.105
-244.471
-251.751
-232.805
-203.735
-180.205
-174.431
-182.365
-195.228
-202.049
-193.681
-170.117
-136.064
-98.853
-65.007
-37.051
-14.968
2.621
16.647
26.672
32.09
32.683
29.339
23.979
18.249
13.477
10.509
9.761
11.474
15.586
21.495
28.12
34.598
40.325
45.008
48.754
51.687
53.971
55.97
58.172
60.923
64.43
68.748
73.738
79.294
85.337
91.75
98.421
105.252
112.164
119.096
126.012
132.874
139.647
146.298
152.797
159.127
165.277
171.253
177.069
182.73
188.233
193.567
198.715
203.663
208.401
212.917
217.197
221.232
225.007
228.514
231.744
234.685
237.319
239.628
241.587
243.179
244.391
245.211
245.627
245.631
245.215
244.373
243.103
241.398
239.255
236.67
233.639
230.161
226.238
221.874
217.075
211.847
206.202
200.153
193.714
186.902
179.734
172.229
164.408
156.293
147.908
139.276
130.422
121.373
112.156
102.799
93.33
83.778
74.172
64.54
54.909
45.307
35.763
26.302
16.95
7.734
-1.322
-10.193
-18.854
-27.284
-35.461
-43.367
-50.982
-58.292
-65.283
-71.942
-78.261
-84.232
-89.848
-95.106
-100.002
-104.537
-108.712
-112.53
-115.996
-119.116
-121.898
-124.354
-126.492
-128.326
-129.868
-131.133
-132.134
-132.886
-133.406
-133.709
-133.812
-133.733
-133.488
-133.097
-132.576
-131.945
-131.222
-130.424
-129.569
-128.674
-127.753
-126.823
-125.898
-124.993
-124.12
-123.292
-122.52
-121.815
-121.187
-120.644
-120.193
-119.841
-119.592
-119.45
-119.419
-119.501
-119.697
-120.008
-120.435
-120.978
-121.636
-122.407
-123.29
-124.28
-125.376
-126.571
-127.862
-129.242
-130.706
-132.245
-133.852
-135.522
-137.246
-139.016
-140.823
-142.66
-144.517
-146.385
-148.256
-150.12
-151.967
-153.789
-155.576
-157.322
-159.018
-160.655
-162.227
-163.727
-165.147
-166.481
-167.724
-168.868
-169.907
-170.835
-171.649
-172.344
-172.916
-173.362
-173.68
-173.872
-173.941
-173.892
-173.728
-173.454
-173.076
-172.601
-172.037
-171.388
-170.656
-169.844
-168.959
-168.011
-167.01
-165.963
-164.878
-163.763
-162.626
-161.479
-160.328
-159.176
-158.02
-156.863
-155.716
-154.599
-153.542
-152.567
-151.687
-150.91
-150.244
-149.694
-149.257
-148.909
-148.608
-148.313
-147.996
-147.64
-147.236
-146.759
-146.169
-145.413
-144.433
-143.192
-141.669
-139.861
-137.776
-135.446
-132.919
-130.28
-127.659
-125.202
-123.054
-121.34
-120.172
-119.653
-119.935
-121.257
-123.779
-127.489
-132.168
-137.427
-142.826
-147.981
-152.439
-155.522
-156.673
-155.794
-153.437
-150.626
-148.49
-148.251
-150.841
-157.091
-167.942
-181.838
-195.854
-208.564
-216.793
-220.208
-219.161
-205.935
-174.66
-118.888
-34.482
67.895
178.415
287.819
389.397
489.834
588.695
679.831
752.315
781.745
755.619
671.502
533.449
365.075
187.217
18.793
-117.718
-216.212
-276.373
-303.425
-314.373
-318.507
-319.04
-315.906
-302.567
-277.926
-246.32
-213.199
-184.652
-162.88
-147.078
-136.33
-129.309
-125.076
-122.723
-120.147
-116.012
-110.227
-102.962
-94.765
-86.193
-77.293
-68.27
-60.156
-53.591
-48.668
-45.375
-43.295
-42.032
-41.536
-41.711
-42.09
-42.249
-41.915
-40.857
-39.098
-36.699
-33.598
-29.748
-25.173
-19.936
-14.125
-7.848
-1.155
5.917
13.293
20.894
28.615
36.341
43.994
51.526
58.9
66.094
73.09
79.867
86.42
92.761
98.894
104.821
110.536
116.027
121.286
126.314
131.115
135.692
140.042
144.161
148.039
151.668
155.039
158.14
160.958
163.476
165.682
167.565
169.121
170.344
171.227
171.768
171.961
171.805
171.298
170.436
169.218
167.643
165.711
163.425
160.788
157.805
154.483
150.829
146.853
142.565
137.978
133.103
127.953
122.542
116.887
111.002
104.904
98.612
92.142
85.514
78.748
71.864
64.882
57.824
50.71
43.562
36.402
29.253
22.137
15.075
8.089
1.202
-5.565
-12.192
-18.657
-24.942
-31.029
-36.9
-42.54
-47.934
-53.069
-57.934
-62.518
-66.812
-70.809
-74.502
-77.887
-80.961
-83.722
-86.169
-88.303
-90.126
-91.642
-92.855
-93.772
-94.401
-94.75
-94.829
-94.651
-94.226
-93.57
-92.696
-91.619
-90.355
-88.92
-87.331
-85.606
-83.76
-81.813
-79.78
-77.678
-75.525
-73.336
-71.127
-68.914
-66.71
-64.529
-62.385
-60.29
-58.256
-56.294
-54.414
-52.625
-50.936
-49.354
-47.885
-46.535
-45.307
-44.205
-43.23
-42.384
-41.667
-41.077
-40.613
-40.271
-40.048
-39.94
-39.939
-40.04
-40.234
-40.513
-40.868
-41.292
-41.774
-42.305
-42.876
-43.476
-44.097
-44.729
-45.361
-45.984
-46.587
-47.161
-47.696
-48.184
-48.616
-48.983
-49.278
-49.495
-49.627
-49.671
-49.62
-49.47
-49.218
-48.861
-48.398
-47.828
-47.15
-46.365
-45.479
-44.497
-43.43
-42.284
-41.07
-39.797
-38.478
-37.122
-35.741
-34.339
-32.922
-31.497
-30.074
-28.667
-27.286
-25.939
-24.636
-23.387
-22.202
-21.09
-20.055
-19.089
-18.19
-17.364
-16.622
-15.99
-15.485
-15.119
-14.901
-14.837
-14.928
-15.169
-15.535
-15.979
-16.46
-16.94
-17.394
-17.812
-18.163
-18.403
-18.484
-18.344
-17.946
-17.256
-16.239
-14.89
-13.233
-11.32
-9.242
-7.098
-4.984
-3.024
-1.338
-0.025
0.778
0.96
0.367
-1.285
-4.126
-8.076
-12.968
-18.364
-23.697
-28.54
-32.275
-33.985
-33.257
-30.33
-25.751
-20.78
-17.136
-16.205
-19.263
-28.012
-41.913
-57.479
-72.918
-86.352
-96.532
-106.048
-110.045
-96.637
-56.902
17.045
122.743
244.909
372.385
500.502
627.729
755.102
874.891
964.407
999.333
964.451
855.792
690.564
498.725
306.66
140.592
15.986
-67.896
-115.462
-139.274
-154.585
-166.043
-174.809
-178.412
-170.848
-153.102
-129.512
-103.757
-80.387
-60.968
-44.669
-31.207
-19.902
-9.658
-0.145
8.49
16.256
22.866
28.276
33.167
37.858
42.264
46.657
51.512
57.14
63.794
71.232
78.6
85.389
91.438
96.555
100.611
103.541
105.371
106.434
107.321
108.482
110.135
112.387
115.263
118.764
122.897
127.601
132.742
138.21
143.958
149.955
156.189
162.651
169.278
176.006
182.801
189.577
196.269
202.844
209.259
215.498
221.572
227.471
233.18
238.703
244.032
249.154
254.069
258.751
263.178
267.332
271.193
274.764
278.051
281.042
283.728
286.093
288.118
289.794
291.115
292.061
292.613
292.758
292.481
291.781
290.658
289.108
287.131
284.721
281.877
278.6
274.894
270.762
266.211
261.247
255.878
250.119
243.989
237.503
230.684
223.548
216.118
208.417
200.47
192.302
183.937
175.401
166.721
157.926
149.043
140.102
131.13
122.155
113.206
104.309
95.491
86.777
78.192
69.759
61.5
53.436
45.588
37.973
30.609
23.511
16.692
10.165
3.94
-1.976
-7.577
-12.857
-17.816
-22.451
-26.764
-30.757
-34.435
-37.803
-40.868
-43.637
-46.12
-48.327
-50.271
-51.963
-53.416
-54.645
-55.664
-56.488
-57.132
-57.61
-57.94
-58.135
-58.211
-58.184
-58.069
-57.881
-57.635
-57.344
-57.022
-56.682
-56.338
-56
-55.68
-55.388
-55.134
-54.927
-54.774
-54.683
-54.66
-54.711
-54.843
-55.058
-55.362
-55.757
-56.246
-56.831
-57.514
-58.296
-59.177
-60.159
-61.239
-62.417
-63.693
-65.065
-66.53
-68.085
-69.728
-71.455
-73.263
-75.147
-77.103
-79.125
-81.209
-83.35
-85.541
-87.775
-90.047
-92.351
-94.679
-97.025
-99.384
-101.747
-104.108
-106.459
-108.794
-111.106
-113.385
-115.625
-117.817
-119.952
-122.024
-124.024
-125.944
-127.776
-129.513
-131.147
-132.672
-134.083
-135.372
-136.534
-137.564
-138.46
-139.219
-139.84
-140.321
-140.662
-140.866
-140.938
-140.885
-140.714
-140.43
-140.043
-139.56
-138.992
-138.348
-137.633
-136.853
-136.017
-135.134
-134.22
-133.289
-132.353
-131.428
-130.524
-129.659
-128.848
-128.099
-127.415
-126.8
-126.262
-125.818
-125.499
-125.328
-125.317
-125.477
-125.812
-126.318
-126.986
-127.79
-128.678
-129.609
-130.546
-131.466
-132.368
-133.235
-134.037
-134.736
-135.275
-135.614
-135.742
-135.63
-135.264
-134.687
-133.956
-133.185
-132.538
-132.11
-131.989
-132.286
-133.084
-134.51
-136.691
-139.662
-143.518
-148.443
-154.48
-161.575
-169.464
-177.446
-184.872
-191.32
-196.188
-198.81
-198.864
-196.3
-191.784
-187.064
-183.608
-182.076
-183.435
-188.701
-197.935
-210.721
-224.074
-231.788
-230.465
-218.694
-196.425
-166.875
-126.674
-69.846
5.514
102.803
215.429
333.866
456.946
576.537
686.489
775.548
816.044
790.78
691.107
523.965
322.695
119.244
-57.493
-187.873
-274.459
-324.73
-351.061
-368.45
-380.587
-387.056
-384.605
-367.244
-336.362
-298.077
-258.936
-224.99
-198.387
-178.645
-165.391
-158.241
-156.212
-157.259
-158.611
-158.554
-156.581
-152.741
-147.168
-139.547
-129.864
-119.071
-108.685
-99.738
-92.578
-87.098
-83.026
-80.403
-79.248
-79.197
-79.575
-79.723
-79.266
-78.093
-76.241
-73.69
-70.361
-66.22
-61.319
-55.779
-49.699
-43.138
-36.115
-28.641
-20.777
-12.617
-4.269
4.151
12.566
20.934
29.22
37.4
45.458
53.375
61.144
68.782
76.297
83.685
90.936
98.032
104.96
111.72
118.315
124.745
131.003
137.074
142.939
148.585
153.992
159.14
164.002
168.552
172.765
176.622
180.106
183.2
185.89
188.158
189.991
191.377
192.303
192.76
192.735
192.221
191.211
189.699
187.685
185.168
182.15
178.637
174.634
170.153
165.204
159.802
153.963
147.705
141.047
134.013
126.626
118.912
110.897
102.61
94.081
85.341
76.422
67.356
58.176
48.916
39.607
30.285
20.98
11.727
2.556
-6.501
-15.414
-24.152
-32.688
-40.995
-49.048
-56.824
-64.301
-71.461
-78.287
-84.764
-90.88
-96.626
-101.993
-106.977
-111.573
-115.781
-119.602
-123.038
-126.095
-128.78
-131.102
-133.07
-134.697
-135.998
-136.985
-137.676
-138.087
-138.236
-138.141
-137.821
-137.295
-136.584
-135.706
-134.681
-133.529
-132.268
-130.918
-129.495
-128.017
-126.499
-124.957
-123.404
-121.853
-120.316
-118.803
-117.323
-115.887
-114.5
-113.171
-111.904
-110.705
-109.576
-108.52
-107.539
-106.634
-105.804
-105.048
-104.366
-103.754
-103.209
-102.729
-102.309
-101.943
-101.628
-101.356
-101.123
-100.923
-100.748
-100.594
-100.454
-100.324
-100.198
-100.073
-99.944
-99.806
-99.657
-99.493
-99.311
-99.107
-98.878
-98.619
-98.329
-98.004
-97.641
-97.236
-96.787
-96.291
-95.744
-95.143
-94.487
-93.77
-92.992
-92.148
-91.237
-90.258
-89.209
-88.089
-86.898
-85.634
-84.3
-82.895
-81.419
-79.874
-78.258
-76.573
-74.819
-72.999
-71.111
-69.159
-67.145
-65.074
-62.954
-60.794
-58.602
-56.386
-54.157
-51.928
-49.707
-47.506
-45.331
-43.186
-41.084
-39.036
-37.054
-35.149
-33.33
-31.605
-29.982
-28.471
-27.077
-25.799
-24.632
-23.574
-22.629
-21.815
-21.155
-20.666
-20.359
-20.238
-20.307
-20.566
-21.007
-21.603
-22.31
-23.083
-23.89
-24.707
-25.515
-26.283
-26.963
-27.489
-27.793
-27.82
-27.531
-26.903
-25.924
-24.614
-23.01
-21.177
-19.229
-17.283
-15.462
-13.902
-12.728
-12.055
-12.047
-12.935
-14.881
-17.934
-21.938
-26.468
-31.014
-35.1
-38.186
-39.635
-38.941
-35.945
-31.16
-25.848
-21.56
-19.711
-21.481
-27.922
-39.715
-56.662
-77.048
-97.569
-114.036
-122.271
-118.264
-97.884
-57.285
6.567
92.243
193.37
303.064
413.678
524.231
641.11
762.177
879.856
975.904
1017.429
986.966
880.657
706.322
495.997
277.931
74.816
-88.071
-201.835
-265.935
-284.562
-275.443
-255.177
-231.477
-208.614
-183.895
-152.246
-115.556
-77.894
-43.463
-17.619
-2.215
4.063
2.732
-3.92
-13.199
-23.541
-33.634
-41.585
-46.101
-46.772
-43.493
-36.822
-27.878
-17.421
-6.272
4.316
13.522
20.955
26.399
30.076
32.393
33.623
34.215
34.798
35.755
37.312
39.585
42.493
45.987
50.078
54.695
59.741
65.155
70.878
76.887
83.191
89.752
96.496
103.337
110.167
116.917
123.546
130.016
136.304
142.386
148.244
153.881
159.308
164.525
169.53
174.315
178.866
183.185
187.279
191.153
194.818
198.274
201.519
204.549
207.358
209.938
212.276
214.36
216.171
217.697
218.927
219.852
220.464
220.754
220.712
220.333
219.611
218.539
217.112
215.325
213.175
210.659
207.777
204.53
200.919
196.948
192.622
187.946
182.93
177.581
171.911
165.931
159.655
153.099
146.28
139.216
131.927
124.435
116.764
108.939
100.986
92.932
84.805
76.633
68.446
60.271
52.139
44.076
36.112
28.273
20.586
13.078
5.772
-1.306
-8.136
-14.697
-20.97
-26.937
-32.584
-37.896
-42.862
-47.473
-51.72
-55.596
-59.099
-62.225
-64.975
-67.351
-69.357
-70.999
-72.287
-73.23
-73.841
-74.134
-74.124
-73.827
-73.26
-72.444
-71.396
-70.137
-68.687
-67.066
-65.295
-63.395
-61.385
-59.285
-57.113
-54.889
-52.628
-50.349
-48.065
-45.793
-43.546
-41.338
-39.181
-37.086
-35.066
-33.128
-31.282
-29.534
-27.891
-26.358
-24.94
-23.637
-22.453
-21.389
-20.444
-19.618
-18.91
-18.316
-17.835
-17.463
-17.196
-17.029
-16.958
-16.979
-17.087
-17.278
-17.549
-17.894
-18.312
-18.799
-19.352
-19.966
-20.641
-21.371
-22.154
-22.984
-23.86
-24.776
-25.73
-26.718
-27.737
-28.783
-29.852
-30.94
-32.044
-33.159
-34.281
-35.404
-36.525
-37.639
-38.742
-39.829
-40.897
-41.94
-42.955
-43.937
-44.884
-45.789
-46.647
-47.453
-48.203
-48.892
-49.515
-50.068
-50.546
-50.949
-51.277
-51.531
-51.712
-51.824
-51.867
-51.847
-51.769
-51.636
-51.449
-51.209
-50.917
-50.578
-50.201
-49.793
-49.36
-48.91
-48.449
-47.986
-47.53
-47.082
-46.638
-46.195
-45.755
-45.326
-44.932
-44.592
-44.318
-44.125
-44.023
-44.012
-44.091
-44.238
-44.414
-44.583
-44.71
-44.772
-44.764
-44.669
-44.456
-44.097
-43.536
-42.729
-41.655
-40.268
-38.545
-36.52
-34.243
-31.817
-29.388
-27.04
-24.873
-23.023
-21.586
-20.69
-20.456
-20.91
-22.187
-24.551
-28.095
-32.791
-38.431
-44.388
-50.076
-55.109
-58.796
-60.31
-59.275
-55.718
-50.302
-44.607
-40.251
-38.391
-40.429
-48.074
-60.629
-75.066
-88.269
-95.198
-95.013
-92.683
-87.478
-76.564
-52.158
2.506
93.652
220.204
377.007
546.878
715.357
867.265
981.841
1041.48
1030.687
943.96
788.39
583.656
359.308
143.455
-36.065
-162.148
-235.209
-263.484
-266.142
-262.429
-258.364
-254.004
-243.962
-221.611
-188.82
-151.345
-114.375
-83.041
-59.301
-42.736
-33.154
-29.674
-30.709
-34.522
-39.824
-45.524
-50.45
-53.896
-55.106
-53.553
-49.544
-43.765
-36.779
-29.308
-22.217
-15.961
-10.973
-7.551
-5.517
-4.61
-4.526
-4.746
-4.748
-4.232
-2.983
-0.911
1.921
5.498
9.786
14.666
20.03
25.788
31.874
38.268
44.949
51.854
58.902
65.991
73.04
80.004
86.85
93.551
100.09
106.444
112.609
118.596
124.406
130.032
135.46
140.672
145.656
150.409
154.931
159.221
163.277
167.09
170.649
173.945
176.965
179.691
182.107
184.192
185.93
187.309
188.317
188.946
189.185
189.027
188.464
187.491
186.102
184.294
182.061
179.403
176.32
172.815
168.891
164.556
159.815
154.68
149.162
143.274
137.032
130.451
123.55
116.348
108.866
101.125
93.15
84.965
76.594
68.066
59.408
50.648
41.816
32.941
24.052
15.18
6.355
-2.396
-11.044
-19.561
-27.921
-36.097
-44.066
-51.803
-59.288
-66.499
-73.418
-80.029
-86.317
-92.269
-97.875
-103.125
-108.013
-112.533
-116.683
-120.461
-123.868
-126.906
-129.578
-131.89
-133.85
-135.465
-136.748
-137.709
-138.362
-138.72
-138.8
-138.617
-138.187
-137.529
-136.659
-135.595
-134.355
-132.958
-131.419
-129.758
-127.991
-126.135
-124.208
-122.223
-120.198
-118.146
-116.08
-114.016
-111.964
-109.938
-107.949
-106.008
-104.124
-102.309
-100.571
-98.918
-97.359
-95.901
-94.548
-93.308
-92.184
-91.182
-90.304
-89.552
-88.93
-88.439
-88.08
-87.854
-87.761
-87.8
-87.97
-88.27
-88.699
-89.252
-89.928
-90.721
-91.629
-92.648
-93.773
-94.999
-96.319
-97.728
-99.218
-100.783
-102.414
-104.102
-105.838
-107.612
-109.413
-111.234
-113.062
-114.887
-116.698
-118.484
-120.236
-121.943
-123.595
-125.183
-126.696
-128.127
-129.468
-130.713
-131.856
-132.892
-133.817
-134.63
-135.333
-135.926
-136.41
-136.789
-137.065
-137.244
-137.331
-137.33
-137.246
-137.082
-136.846
-136.549
-136.203
-135.82
-135.411
-134.989
-134.568
-134.164
-133.789
-133.447
-133.145
-132.889
-132.694
-132.586
-132.582
-132.691
-132.92
-133.274
-133.752
-134.35
-135.047
-135.796
-136.559
-137.305
-138.013
-138.687
-139.313
-139.866
-140.314
-140.61
-140.735
-140.691
-140.473
-140.058
-139.459
-138.732
-137.985
-137.385
-137.053
-137.042
-137.41
-138.217
-139.548
-141.5
-144.145
-147.495
-151.584
-156.548
-162.457
-169.241
-176.657
-184.151
-191.098
-197.025
-201.375
-203.373
-202.573
-199.025
-193.135
-186.061
-179.235
-173.63
-170.493
-171.736
-177.109
-183.887
-189.732
-191.085
-187.968
-185.784
-184.48
-179.363
-160.731
-113.761
-32.574
78.771
210.57
350.562
490.052
621.211
733.792
810.175
830.058
782.199
665.088
494.668
299.149
104.091
-66.021
-197.823
-290.377
-345.338
-372.111
-379.878
-375.068
-367.207
-360.131
-355.985
-354.769
-349.306
-335.542
-311.487
-278.088
-242.474
-209.984
-183.691
-164.503
-150.549
-140.651
-134.042
-130.359
-129.433
-130.006
-131.017
-131.696
-130.883
-128.108
-123.51
-117.136
-109.643
-102.105
-94.978
-88.599
-83.414
-79.417
-76.444
-74.313
-72.496
-70.375
-67.669
-64.219
-59.917
-54.827
-48.987
-42.424
-35.28
-27.706
-19.791
-11.601
-3.174
5.47
14.263
23.11
31.942
40.705
49.367
57.914
66.335
74.618
82.767
90.794
98.701
106.485
114.136
121.633
128.961
136.11
143.068
149.829
156.385
162.725
168.836
174.701
180.3
185.609
190.606
195.264
199.561
203.479
207.002
210.115
212.805
215.061
216.873
218.233
219.131
219.561
219.515
218.989
217.982
216.495
214.529
212.091
209.188
205.83
202.03
197.803
193.165
188.135
182.734
176.982
170.905
164.527
157.875
150.976
143.858
136.552
129.087
121.494
113.803
106.046
98.252
90.452
82.674
74.948
67.301
59.76
52.351
45.098
38.024
31.152
24.501
18.091
11.937
6.054
0.455
-4.85
-9.854
-14.548
-18.931
-22.998
-26.75
-30.187
-33.314
-36.134
-38.654
-40.881
-42.823
-44.49
-45.893
-47.043
-47.952
-48.632
-49.096
-49.357
-49.427
-49.32
-49.05
-48.628
-48.069
-47.385
-46.586
-45.686
-44.696
-43.625
-42.484
-41.283
-40.029
-38.732
-37.399
-36.038
-34.653
-33.252
-31.839
-30.419
-28.995
-27.572
-26.152
-24.739
-23.336
-21.944
-20.568
-19.209
-17.872
-16.558
-15.27
-14.011
-12.782
-11.587
-10.426
-9.302
-8.217
-7.172
-6.17
-5.212
-4.302
-3.439
-2.625
-1.862
-1.151
-0.492
0.117
0.675
1.184
1.643
2.054
2.418
2.738
3.016
3.255
3.457
3.625
3.765
3.882
3.981
4.066
4.142
4.214
4.286
4.364
4.449
4.542
4.644
4.756
4.876
5.007
5.148
5.296
5.454
5.622
5.804
6
6.21
6.429
6.653
6.878
7.097
7.305
7.494
7.652
7.779
7.877
7.945
7.981
7.972
7.892
7.724
7.458
7.081
6.587
5.977
5.26
4.467
3.654
2.866
2.148
1.524
0.995
0.579
0.297
0.178
0.267
0.585
1.131
1.92
2.965
4.228
5.631
7.03
8.214
9.022
9.35
9.083
8.119
6.357
3.688
0.036
-4.617
-10.352
-17.339
-25.602
-35.023
-45.252
-55.622
-65.469
-74.194
-80.98
-84.928
-85.691
-83.386
-78.728
-73.159
-67.961
-64.317
-63.93
-68.315
-76.331
-84.819
-90.442
-89.791
-84.199
-77.502
-67.588
-48.264
-9.709
59.009
159.081
283.454
423.745
569.409
708.424
829.044
913.837
942.066
904.828
801.287
640.318
447.503
245.323
57.257
-90.347
-190.246
-242.855
-258.3
-261.136
-264.025
-270.562
-279.129
-279.007
-266.908
-246.904
-223.475
-201.904
-183.724
-167.356
-151.538
-135.475
-119.127
-102.411
-85.141
-68.411
-53.657
-41.813
-33.6
-28.704
-25.961
-24.87
-25.032
-25.307
-24.816
-23.022
-19.476
-14.613
-9.405
-4.251
0.611
4.843
8.486
11.578
14.11
16.476
19.19
22.51
26.605
31.523
37.125
43.34
50.126
57.355
64.912
72.693
80.597
88.559
96.533
104.47
112.329
120.074
127.669
135.098
142.355
149.449
156.407
163.238
169.944
176.522
182.958
189.245
195.381
201.355
207.156
212.776
218.2
223.42
228.43
233.215
237.756
242.034
246.023
249.702
253.056
256.07
258.728
261.02
262.932
264.455
265.582
266.306
266.617
266.508
265.971
265.001
263.596
261.754
259.475
256.763
253.624
250.064
246.094
241.725
236.97
231.843
226.361
220.542
214.405
207.969
201.257
194.29
187.092
179.688
172.102
164.362
156.493
148.522
140.474
132.377
124.256
116.137
108.044
100.004
92.04
84.176
76.437
68.844
61.42
54.184
47.156
40.352
33.789
27.48
21.438
15.671
10.191
5.003
0.113
-4.473
-8.754
-12.729
-16.396
-19.76
-22.822
-25.587
-28.062
-30.254
-32.171
-33.821
-35.216
-36.365
-37.28
-37.974
-38.458
-38.747
-38.855
-38.796
-38.586
-38.241
-37.777
-37.209
-36.555
-35.83
-35.05
-34.232
-33.39
-32.54
-31.697
-30.875
-30.088
-29.35
-28.673
-28.07
-27.551
-27.128
-26.809
-26.604
-26.519
-26.563
-26.74
-27.056
-27.515
-28.121
-28.875
-29.78
-30.833
-32.034
-33.381
-34.868
-36.492
-38.247
-40.124
-42.116
-44.213
-46.405
-48.683
-51.033
-53.444
-55.901
-58.392
-60.903
-63.42
-65.928
-68.413
-70.86
-73.257
-75.592
-77.851
-80.024
-82.098
-84.063
-85.911
-87.634
-89.224
-90.675
-91.981
-93.141
-94.156
-95.03
-95.767
-96.371
-96.85
-97.212
-97.468
-97.628
-97.698
-97.684
-97.598
-97.452
-97.262
-97.044
-96.81
-96.574
-96.353
-96.163
-96.021
-95.936
-95.91
-95.948
-96.06
-96.263
-96.587
-97.051
-97.667
-98.447
-99.398
-100.52
-101.813
-103.254
-104.798
-106.407
-108.046
-109.693
-111.337
-112.95
-114.489
-115.905
-117.139
-118.152
-118.917
-119.396
-119.581
-119.495
-119.185
-118.739
-118.254
-117.81
-117.512
-117.464
-117.751
-118.471
-119.698
-121.55
-124.25
-127.928
-132.561
-138
-143.877
-149.759
-155.253
-159.766
-162.509
-162.958
-161.031
-157.133
-152.155
-147.272
-143.835
-143.354
-147.5
-156.015
-166.159
-175.061
-180.782
-185.726
-194.391
-205.938
-212.006
-195.241
-139.575
-42.146
87.713
228.852
362.618
485.088
596.757
699.817
790.161
847.298
851.128
790.964
664.686
488.738
289.522
90.879
-80.574
-205.88
-281.776
-311.873
-311.817
-302.061
-292.034
-285.091
-278.243
-264.457
-243.997
-221.176
-200.087
-184.985
-176.459
-172.461
-171.352
-171.282
-170.424
-167.444
-161.582
-152.842
-141.863
-129.591
-116.838
-104.244
-92.514
-82.348
-74.122
-67.899
-63.515
-60.601
-58.831
-57.967
-57.735
-57.852
-58.081
-58.171
-57.901
-57.154
-55.833
-53.868
-51.233
-47.894
-43.838
-39.11
-33.772
-27.895
-21.557
-14.819
-7.737
-0.392
7.129
14.73
22.31
29.803
37.166
44.361
51.367
58.164
64.741
71.105
77.274
83.255
89.051
94.657
100.063
105.267
110.271
115.074
119.674
124.062
128.228
132.162
135.854
139.288
142.449
145.317
147.875
150.107
152.001
153.546
154.733
155.553
155.998
156.062
155.74
155.027
153.919
152.411
150.503
148.193
145.485
142.381
138.888
135.013
130.766
126.158
121.205
115.92
110.321
104.426
98.257
91.833
85.18
78.319
71.276
64.075
56.743
49.305
41.789
34.22
26.625
19.03
11.462
3.946
-3.491
-10.825
-18.033
-25.091
-31.975
-38.665
-45.14
-51.382
-57.372
-63.095
-68.538
-73.688
-78.535
-83.073
-87.295
-91.198
-94.781
-98.046
-100.994
-103.629
-105.958
-107.987
-109.725
-111.18
-112.363
-113.285
-113.958
-114.394
-114.607
-114.61
-114.416
-114.041
-113.498
-112.8
-111.964
-111.001
-109.927
-108.755
-107.499
-106.174
-104.793
-103.369
-101.914
-100.44
-98.959
-97.479
-96.01
-94.557
-93.127
-91.725
-90.354
-89.02
-87.725
-86.471
-85.261
-84.098
-82.985
-81.921
-80.91
-79.952
-79.047
-78.197
-77.405
-76.67
-75.995
-75.382
-74.832
-74.348
-73.932
-73.582
-73.299
-73.082
-72.928
-72.834
-72.798
-72.814
-72.878
-72.987
-73.14
-73.335
-73.573
-73.854
-74.181
-74.554
-74.974
-75.439
-75.945
-76.483
-77.043
-77.617
-78.194
-78.766
-79.324
-79.86
-80.368
-80.849
-81.297
-81.703
-82.053
-82.325
-82.505
-82.589
-82.582
-82.493
-82.345
-82.171
-82.01
-81.908
-81.895
-81.985
-82.17
-82.421
-82.706
-82.994
-83.269
-83.534
-83.787
-84.018
-84.21
-84.347
-84.378
-84.226
-83.795
-82.967
-81.67
-79.882
-77.625
-74.961
-71.976
-68.783
-65.467
-62.088
-58.691
-55.293
-51.917
-48.585
-45.355
-42.338
-39.676
-37.552
-36.104
-35.385
-35.371
-35.985
-37.106
-38.579
-40.331
-42.29
-44.361
-46.602
-49.151
-52.252
-56.162
-60.91
-66.22
-71.751
-77.378
-82.928
-88.099
-92.331
-94.898
-95.546
-94.557
-92.352
-89.005
-84.467
-78.824
-72.495
-66.353
-60.961
-56.377
-52.585
-49.878
-48.707
-49.513
-52.571
-57.507
-63.576
-69.732
-74.529
-76.135
-72.233
-60.131
-36.896
0.353
52.333
116.445
189.358
266.95
347.429
434.939
531.352
633.509
732.112
804.762
828.334
788.688
680.761
521.643
340.566
165.73
24.602
-74.438
-137.968
-176.816
-208.308
-239.989
-269.856
-293.951
-303.807
-295.74
-272.461
-238.093
-198.602
-158.317
-118.619
-80.5
-45.209
-14.705
8.974
24.958
33.503
35.554
32.124
24.243
13.468
2.054
-7.783
-14.661
-18.03
-18.009
-15.009
-9.472
-2.173
5.676
12.98
19.132
23.963
27.682
30.63
33.063
35.319
37.873
41.061
45.037
49.812
55.238
61.158
67.487
74.127
80.961
87.911
94.903
101.872
108.806
115.69
122.497
129.212
135.817
142.299
148.663
154.926
161.09
167.158
173.119
178.959
184.664
190.224
195.629
200.871
205.94
210.822
215.506
219.983
224.242
228.268
232.041
235.538
238.738
241.626
244.188
246.411
248.282
249.788
250.92
251.669
252.024
251.977
251.517
250.633
249.319
247.57
245.382
242.754
239.687
236.183
232.247
227.887
223.111
217.928
212.35
206.389
200.061
193.382
186.37
179.044
171.424
163.533
155.393
147.029
138.465
129.726
120.838
111.829
102.723
93.55
84.336
75.108
65.895
56.722
47.619
38.611
29.724
20.982
12.411
4.031
-4.135
-12.068
-19.751
-27.166
-34.299
-41.135
-47.664
-53.875
-59.759
-65.309
-70.521
-75.39
-79.913
-84.091
-87.924
-91.413
-94.562
-97.375
-99.856
-102.014
-103.855
-105.387
-106.622
-107.568
-108.238
-108.644
-108.799
-108.716
-108.409
-107.891
-107.177
-106.282
-105.219
-104.004
-102.651
-101.173
-99.587
-97.905
-96.142
-94.311
-92.426
-90.5
-88.544
-86.573
-84.596
-82.627
-80.675
-78.752
-76.869
-75.036
-73.263
-71.558
-69.93
-68.388
-66.938
-65.586
-64.34
-63.202
-62.178
-61.271
-60.485
-59.822
-59.284
-58.871
-58.585
-58.424
-58.387
-58.472
-58.676
-58.995
-59.423
-59.955
-60.585
-61.308
-62.114
-62.997
-63.948
-64.958
-66.019
-67.119
-68.248
-69.395
-70.548
-71.698
-72.831
-73.937
-75.006
-76.026
-76.989
-77.886
-78.707
-79.445
-80.091
-80.637
-81.077
-81.406
-81.617
-81.705
-81.669
-81.506
-81.22
-80.815
-80.297
-79.67
-78.945
-78.129
-77.232
-76.264
-75.231
-74.137
-72.99
-71.798
-70.575
-69.334
-68.084
-66.838
-65.607
-64.403
-63.238
-62.118
-61.047
-60.022
-59.047
-58.134
-57.299
-56.569
-55.967
-55.508
-55.202
-55.058
-55.078
-55.254
-55.565
-55.97
-56.432
-56.921
-57.411
-57.881
-58.299
-58.628
-58.821
-58.822
-58.58
-58.057
-57.242
-56.135
-54.763
-53.161
-51.364
-49.464
-47.571
-45.815
-44.341
-43.28
-42.733
-42.842
-43.838
-45.846
-48.852
-52.664
-56.738
-60.498
-63.523
-65.327
-65.329
-63.289
-59.331
-54.117
-49.296
-46.566
-47.096
-52.012
-62.132
-77.324
-96.581
-117.628
-136.244
-147.94
-148.955
-135.365
-103.768
-52.275
19.641
109.086
208.956
312.07
412.646
507.801
596.764
675.297
733.958
758.836
738.864
670.968
561.845
427.243
281.052
136.566
5.908
-104.151
-184.241
-231.689
-252.744
-252.711
-240.546
-221.013
-192.002
-155.302
-113.562
-70.623
-33.024
-3.757
16.729
27.907
30.678
26.836
18.167
7.294
-3.068
-11.694
-17.944
-20.997
-20.652
-17.191
-11.143
-3.808
3.347
9.695
14.934
18.766
21.262
22.533
22.74
22.456
22.328
22.695
23.751
25.572
28.089
31.293
35.2
39.725
44.765
50.235
56.064
62.231
68.725
75.505
82.502
89.629
96.812
104
111.161
118.273
125.319
132.278
139.134
145.883
152.512
159.01
165.364
171.549
177.547
183.344
188.932
194.31
199.471
204.403
209.092
213.521
217.672
221.527
225.067
228.27
231.116
233.591
235.681
237.377
238.667
239.542
239.993
240.013
239.593
238.727
237.411
235.64
233.411
230.725
227.583
223.989
219.951
215.475
210.571
205.25
199.528
193.418
186.937
180.102
172.934
165.451
157.678
149.636
141.35
132.845
124.146
115.28
106.275
97.157
87.954
78.693
69.401
60.106
50.833
41.61
32.46
23.41
14.484
5.705
-2.905
-11.325
-19.536
-27.519
-35.258
-42.739
-49.951
-56.882
-63.524
-69.871
-75.917
-81.66
-87.098
-92.231
-97.062
-101.594
-105.832
-109.782
-113.453
-116.853
-119.992
-122.882
-125.534
-127.96
-130.174
-132.189
-134.018
-135.677
-137.18
-138.54
-139.774
-140.894
-141.917
-142.856
-143.724
-144.535
-145.302
-146.037
-146.751
-147.454
-148.156
-148.865
-149.591
-150.34
-151.12
-151.935
-152.792
-153.694
-154.646
-155.651
-156.711
-157.83
-159.008
-160.247
-161.549
-162.915
-164.344
-165.838
-167.396
-169.019
-170.704
-172.453
-174.262
-176.132
-178.059
-180.043
-182.083
-184.175
-186.319
-188.512
-190.752
-193.037
-195.365
-197.733
-200.138
-202.577
-205.047
-207.546
-210.069
-212.613
-215.175
-217.749
-220.333
-222.922
-225.509
-228.089
-230.655
-233.201
-235.721
-238.206
-240.651
-243.047
-245.387
-247.666
-249.876
-252.012
-254.067
-256.035
-257.909
-259.685
-261.357
-262.92
-264.37
-265.703
-266.917
-268.011
-268.989
-269.854
-270.608
-271.254
-271.797
-272.242
-272.594
-272.855
-273.024
-273.102
-273.093
-273.006
-272.847
-272.625
-272.344
-272.012
-271.639
-271.232
-270.798
-270.336
-269.84
-269.311
-268.758
-268.197
-267.654
-267.149
-266.691
-266.287
-265.946
-265.667
-265.441
-265.245
-265.031
-264.763
-264.412
-263.956
-263.382
-262.664
-261.763
-260.636
-259.233
-257.508
-255.435
-253.012
-250.243
-247.166
-243.832
-240.288
-236.647
-233.04
-229.585
-226.404
-223.607
-221.272
-219.55
-218.694
-218.837
-219.958
-221.902
-224.26
-226.561
-228.424
-229.32
-228.531
-225.64
-220.71
-214.205
-207.158
-201.058
-197.334
-197.164
-201.957
-211.282
-222.172
-233.109
-242.695
-250.432
-258.991
-263.822
-254.138
-219.803
-150.53
-48.869
70.924
195.222
313.318
425.232
534.332
637.514
722.194
765.44
751.935
679.329
559.442
418.121
274.922
140.822
20.476
-89.236
-187.137
-268.218
-328.443
-363.88
-374.835
-364.973
-338.187
-299.724
-255.227
-209.807
-168.218
-133.347
-106.082
-86.861
-75.84
-72.021
-73.649
-78.186
-82.624
-85.347
-85.944
-84.022
-79.227
-71.628
-61.642
-50.408
-39.631
-30.224
-22.396
-16.257
-11.797
-8.971
-7.673
-7.441
-7.474
-7.193
-6.321
-4.722
-2.399
0.662
4.536
9.225
14.635
20.661
27.227
34.282
41.826
49.843
58.265
67.004
75.954
85.011
94.104
103.193
112.241
121.221
130.109
138.882
147.53
156.061
164.473
172.754
180.885
188.846
196.621
204.209
211.608
218.811
225.808
232.578
239.104
245.368
251.35
257.028
262.378
267.375
271.997
276.23
280.061
283.479
286.471
289.027
291.14
292.802
294.009
294.756
295.038
294.855
294.206
293.095
291.525
289.503
287.038
284.137
280.815
277.082
272.956
268.451
263.585
258.377
252.85
247.023
240.922
234.571
227.993
221.217
214.269
207.175
199.964
192.662
185.297
177.895
170.485
163.091
155.741
148.46
141.272
134.203
127.277
120.515
113.939
107.571
101.428
95.529
89.891
84.528
79.453
74.679
70.217
66.074
62.257
58.773
55.624
52.812
50.336
48.196
46.388
44.907
43.746
42.897
42.352
42.1
42.13
42.429
42.983
43.778
44.797
46.026
47.446
49.041
50.794
52.685
54.698
56.814
59.014
61.281
63.597
65.944
68.304
70.661
72.997
75.297
77.547
79.731
81.836
83.85
85.762
87.562
89.241
90.789
92.201
93.47
94.591
95.561
96.377
97.038
97.544
97.896
98.096
98.146
98.051
97.813
97.439
96.933
96.301
95.55
94.685
93.714
92.644
91.484
90.241
88.923
87.538
86.094
84.598
83.058
81.481
79.874
78.243
76.594
74.934
73.268
71.602
69.94
68.287
66.646
65.023
63.419
61.837
60.278
58.745
57.238
55.76
54.311
52.894
51.51
50.161
48.849
47.576
46.344
45.156
44.012
42.914
41.865
40.869
39.927
39.041
38.215
37.451
36.751
36.119
35.555
35.06
34.635
34.279
33.991
33.772
33.616
33.522
33.484
33.5
33.564
33.671
33.815
33.989
34.188
34.406
34.635
34.868
35.093
35.3
35.479
35.615
35.696
35.71
35.64
35.478
35.22
34.859
34.388
33.797
33.065
32.179
31.137
29.934
28.566
27.036
25.353
23.544
21.657
19.734
17.809
15.905
14.03
12.198
10.439
8.786
7.276
5.938
4.773
3.793
3.022
2.463
2.082
1.775
1.387
0.778
-0.134
-1.384
-3.015
-5.106
-7.748
-11.018
-14.951
-19.523
-24.769
-30.859
-37.857
-45.63
-53.801
-61.665
-68.509
-73.797
-76.876
-76.975
-73.703
-67.17
-58.072
-47.838
-38.049
-30.203
-25.978
-26.908
-32.067
-38.211
-42.204
-41.142
-36.286
-31.681
-25.49
-10.589
24.629
92.794
196.279
327.126
473.546
622.298
761
880.123
966.367
1001.64
976.064
885.553
735.841
550.567
352.523
165.514
13.328
-97.762
-166.85
-200.263
-213.804
-217.592
-220.629
-227.737
-237.181
-245.261
-245.162
-232.942
-207.139
-170.034
-128.535
-87.14
-49.579
-18.266
7.603
28.14
43.18
53.158
57.993
58.104
54.978
50.515
46.46
43.901
43.212
44.281
46.778
50.372
54.457
58.011
60.269
60.951
60.077
58.017
55.214
51.945
48.603
45.748
43.778
42.96
43.469
45.259
48.264
52.469
57.762
63.987
70.978
78.503
86.362
94.427
102.584
110.757
118.897
126.937
134.833
142.556
150.058
157.308
164.276
170.914
177.204
183.14
188.736
194.039
199.096
203.928
208.551
212.962
217.15
221.106
224.81
228.228
231.334
234.104
236.522
238.583
240.276
241.589
242.506
243.009
243.079
242.707
241.882
240.594
238.84
236.619
233.934
230.796
227.216
223.203
218.768
213.921
208.673
203.038
197.031
190.665
183.957
176.926
169.593
161.98
154.11
146.008
137.697
129.204
120.554
111.772
102.885
93.918
84.896
75.845
66.789
57.753
48.762
39.838
31.005
22.286
13.701
5.272
-2.982
-11.042
-18.893
-26.516
-33.899
-41.026
-47.885
-54.466
-60.758
-66.752
-72.442
-77.821
-82.886
-87.635
-92.068
-96.185
-99.989
-103.483
-106.672
-109.561
-112.157
-114.467
-116.5
-118.264
-119.77
-121.028
-122.049
-122.846
-123.43
-123.814
-124.011
-124.035
-123.899
-123.617
-123.202
-122.67
-122.034
-121.309
-120.508
-119.645
-118.733
-117.786
-116.815
-115.833
-114.849
-113.875
-112.919
-111.99
-111.096
-110.244
-109.441
-108.691
-108.001
-107.376
-106.818
-106.331
-105.918
-105.581
-105.321
-105.139
-105.036
-105.011
-105.064
-105.193
-105.398
-105.675
-106.024
-106.439
-106.919
-107.459
-108.055
-108.703
-109.398
-110.137
-110.913
-111.725
-112.567
-113.437
-114.332
-115.248
-116.183
-117.134
-118.099
-119.075
-120.06
-121.05
-122.044
-123.04
-124.035
-125.027
-126.014
-126.994
-127.963
-128.92
-129.861
-130.783
-131.684
-132.558
-133.402
-134.215
-134.992
-135.731
-136.428
-137.08
-137.687
-138.245
-138.752
-139.205
-139.601
-139.938
-140.212
-140.423
-140.566
-140.64
-140.643
-140.577
-140.445
-140.249
-139.994
-139.684
-139.323
-138.916
-138.471
-137.99
-137.476
-136.929
-136.353
-135.755
-135.146
-134.533
-133.923
-133.324
-132.743
-132.189
-131.672
-131.192
-130.741
-130.32
-129.928
-129.58
-129.302
-129.114
-129.024
-129.044
-129.177
-129.423
-129.782
-130.229
-130.717
-131.207
-131.658
-132.045
-132.367
-132.597
-132.698
-132.629
-132.322
-131.735
-130.847
-129.622
-128.052
-126.167
-124.014
-121.684
-119.313
-117.006
-114.895
-113.136
-111.844
-111.155
-111.161
-111.959
-113.782
-116.779
-120.93
-126.051
-131.692
-137.336
-142.653
-147.205
-150.254
-151.287
-150.14
-147.271
-143.938
-141.28
-140.224
-141.789
-147.066
-157.174
-170.915
-184.084
-192.467
-191.931
-183.347
-173.163
-161.771
-145.867
-115.811
-53.66
46.587
182.392
345.413
515.191
676.381
815.974
917.585
968.316
955.323
871.186
719.539
518.728
297.276
85.472
-87.536
-210.157
-286.382
-327.756
-354.233
-375.802
-391.969
-399.161
-389.229
-361.055
-320.641
-274.788
-231.098
-193.819
-163.834
-141.584
-127.049
-119.565
-118.091
-120.809
-125.676
-131.153
-135.848
-138.747
-139.088
-136.45
-131.011
-123.421
-114.542
-105.267
-96.552
-88.985
-82.936
-78.623
-75.882
-74.424
-73.856
-73.599
-73.072
-71.926
-69.954
-67.079
-63.362
-58.824
-53.498
-47.505
-40.966
-33.978
-26.614
-18.902
-10.871
-2.592
5.837
14.305
22.721
31.034
39.211
47.223
55.055
62.686
70.111
77.346
84.393
91.248
97.901
104.333
110.534
116.506
122.252
127.772
133.067
138.128
142.946
147.512
151.811
155.829
159.547
162.945
166.01
168.728
171.091
173.091
174.721
175.971
176.837
177.313
177.394
177.075
176.351
175.22
173.68
171.731
169.376
166.618
163.461
159.912
155.979
151.67
146.997
141.97
136.603
130.911
124.909
118.616
112.049
105.228
98.175
90.91
83.457
75.84
68.082
60.208
52.242
44.21
36.137
28.047
19.967
11.919
3.93
-3.977
-11.779
-19.451
-26.972
-34.322
-41.479
-48.425
-55.142
-61.614
-67.825
-73.763
-79.415
-84.771
-89.821
-94.558
-98.975
-103.069
-106.836
-110.276
-113.389
-116.177
-118.642
-120.79
-122.627
-124.16
-125.397
-126.348
-127.023
-127.435
-127.594
-127.515
-127.21
-126.694
-125.981
-125.087
-124.027
-122.815
-121.467
-119.998
-118.424
-116.759
-115.019
-113.217
-111.369
-109.487
-107.585
-105.677
-103.773
-101.887
-100.029
-98.209
-96.437
-94.722
-93.072
-91.494
-89.995
-88.58
-87.255
-86.024
-84.889
-83.854
-82.92
-82.089
-81.36
-80.734
-80.208
-79.783
-79.454
-79.221
-79.08
-79.026
-79.057
-79.167
-79.353
-79.61
-79.931
-80.312
-80.747
-81.228
-81.75
-82.307
-82.889
-83.491
-84.105
-84.724
-85.341
-85.949
-86.541
-87.109
-87.645
-88.144
-88.599
-89.003
-89.349
-89.631
-89.842
-89.977
-90.031
-89.999
-89.875
-89.655
-89.334
-88.909
-88.377
-87.735
-86.979
-86.107
-85.12
-84.017
-82.8
-81.47
-80.03
-78.484
-76.839
-75.104
-73.287
-71.396
-69.442
-67.435
-65.387
-63.311
-61.213
-59.104
-56.993
-54.889
-52.807
-50.761
-48.763
-46.827
-44.966
-43.194
-41.527
-39.972
-38.532
-37.21
-36.011
-34.944
-34.036
-33.3
-32.745
-32.378
-32.204
-32.218
-32.411
-32.752
-33.19
-33.682
-34.188
-34.685
-35.169
-35.621
-36.012
-36.311
-36.466
-36.45
-36.25
-35.839
-35.188
-34.314
-33.278
-32.193
-31.235
-30.519
-30.101
-30.052
-30.432
-31.329
-32.841
-35.026
-37.906
-41.556
-46.166
-51.828
-58.459
-65.714
-72.912
-79.344
-84.396
-87.38
-87.487
-84.317
-78.058
-69.493
-60.205
-51.948
-46.259
-44.788
-49.083
-58.321
-69.356
-78.866
-83.425
-83.535
-82.43
-78.364
-64.713
-29.76
38.914
143.855
278.289
429.437
582.84
727.558
852.818
946.521
994.452
983.197
908.901
775.743
597.94
398.643
198.998
21.341
-116.628
-211.157
-264.677
-288.86
-300.31
-306.203
-308.414
-304.219
-287.367
-258.091
-220.977
-181.315
-144.585
-113.245
-87.733
-68.279
-54.798
-46.999
-44.016
-44.426
-47.257
-51.51
-55.906
-59.534
-61.395
-60.825
-57.981
-53.335
-47.32
-40.63
-34.148
-28.435
-24.018
-21.176
-19.737
-19.42
-19.843
-20.504
-20.881
-20.641
-19.586
-17.625
-14.809
-11.187
-6.837
-1.875
3.574
9.421
15.621
22.128
28.904
35.881
42.95
50.032
57.07
64.024
70.871
77.597
84.185
90.632
96.955
103.158
109.236
115.181
120.968
126.584
132.024
137.282
142.356
147.24
151.925
156.399
160.65
164.661
168.408
171.87
175.02
177.837
180.304
182.405
184.128
185.459
186.387
186.903
186.998
186.664
185.892
184.675
183.007
180.884
178.306
175.273
171.788
167.855
163.482
158.677
153.451
147.817
141.788
135.379
128.606
121.488
114.046
106.301
98.276
89.994
81.482
72.766
63.874
54.835
45.676
36.427
27.116
17.773
8.427
-0.896
-10.166
-19.357
-28.441
-37.393
-46.186
-54.796
-63.2
-71.377
-79.305
-86.967
-94.345
-101.424
-108.19
-114.63
-120.734
-126.49
-131.893
-136.934
-141.61
-145.916
-149.853
-153.42
-156.619
-159.455
-161.931
-164.055
-165.834
-167.278
-168.395
-169.196
-169.693
-169.898
-169.825
-169.485
-168.895
-168.067
-167.018
-165.761
-164.313
-162.687
-160.899
-158.965
-156.899
-154.716
-152.432
-150.061
-147.617
-145.117
-142.574
-140.002
-137.416
-134.827
-132.25
-129.696
-127.176
-124.7
-122.278
-119.919
-117.631
-115.42
-113.295
-111.26
-109.319
-107.477
-105.737
-104.102
-102.574
-101.153
-99.84
-98.635
-97.537
-96.544
-95.654
-94.863
-94.167
-93.561
-93.04
-92.597
-92.225
-91.914
-91.658
-91.447
-91.271
-91.121
-90.985
-90.855
-90.718
-90.565
-90.386
-90.171
-89.909
-89.591
-89.21
-88.757
-88.225
-87.609
-86.902
-86.098
-85.193
-84.184
-83.068
-81.841
-80.502
-79.051
-77.491
-75.827
-74.067
-72.215
-70.28
-68.271
-66.199
-64.074
-61.903
-59.692
-57.449
-55.183
-52.908
-50.638
-48.382
-46.151
-43.954
-41.806
-39.718
-37.697
-35.745
-33.862
-32.048
-30.315
-28.68
-27.164
-25.786
-24.549
-23.459
-22.519
-21.728
-21.078
-20.545
-20.087
-19.667
-19.263
-18.852
-18.42
-17.938
-17.357
-16.632
-15.714
-14.561
-13.15
-11.477
-9.539
-7.369
-5.011
-2.509
0.037
2.524
4.85
6.882
8.511
9.648
10.139
9.783
8.48
6.23
3.234
-0.039
-3.133
-5.68
-7.226
-7.271
-5.497
-1.86
3.062
8.008
11.705
13.171
11.586
6.279
-3.037
-16.031
-31.071
-45.152
-54.956
-57.379
-49.359
-27.958
9.401
64.905
137.411
221.823
312.907
404.857
495.234
588.183
683.982
777.699
859.268
906.273
898.92
828.984
695.317
514.721
314.469
119.092
-44.852
-160.747
-226.517
-246.016
-233.373
-203.186
-165.514
-130.78
-102.923
-85.33
-79.036
-77.422
-75.998
-70.345
-59.066
-47.392
-38.237
-32.408
-28.859
-24.039
-16.566
-6.9
4.186
15.449
26.229
36.196
44.696
51.326
56.039
58.998
60.601
61.161
60.869
59.98
58.788
57.603
56.735
56.365
56.57
57.43
58.993
61.292
64.371
68.213
72.752
77.933
83.687
89.95
96.677
103.794
111.214
118.841
126.566
134.309
142.024
149.669
157.216
164.645
171.936
179.086
186.112
193.019
199.807
206.471
212.993
219.366
225.588
231.655
237.562
243.296
248.843
254.185
259.306
264.185
268.802
273.128
277.138
280.806
284.112
287.04
289.573
291.694
293.388
294.642
295.447
295.793
295.669
295.068
293.982
292.407
290.342
287.786
284.742
281.215
277.212
272.741
267.814
262.446
256.653
250.45
243.859
236.9
229.597
221.975
214.06
205.879
197.461
188.837
180.036
171.09
162.03
152.889
143.698
134.489
125.293
116.142
107.064
98.09
89.249
80.567
72.071
63.786
55.736
47.942
40.424
33.199
26.282
19.688
13.428
7.509
1.939
-3.277
-8.138
-12.642
-16.792
-20.59
-24.043
-27.156
-29.94
-32.403
-34.557
-36.416
-37.993
-39.303
-40.362
-41.185
-41.789
-42.192
-42.41
-42.46
-42.361
-42.129
-41.782
-41.336
-40.808
-40.215
-39.571
-38.89
-38.188
-37.475
-36.765
-36.066
-35.39
-34.744
-34.136
-33.573
-33.059
-32.6
-32.199
-31.859
-31.58
-31.365
-31.214
-31.125
-31.099
-31.133
-31.225
-31.374
-31.579
-31.836
-32.143
-32.498
-32.896
-33.336
-33.813
-34.324
-34.863
-35.426
-36.008
-36.605
-37.212
-37.825
-38.44
-39.052
-39.659
-40.256
-40.84
-41.407
-41.955
-42.481
-42.981
-43.455
-43.901
-44.316
-44.701
-45.054
-45.374
-45.662
-45.917
-46.137
-46.322
-46.47
-46.581
-46.654
-46.689
-46.686
-46.646
-46.575
-46.477
-46.362
-46.234
-46.101
-45.971
-45.854
-45.756
-45.684
-45.639
-45.625
-45.646
-45.712
-45.83
-46.006
-46.245
-46.551
-46.933
-47.394
-47.94
-48.568
-49.272
-50.048
-50.901
-51.847
-52.909
-54.105
-55.442
-56.925
-58.556
-60.335
-62.248
-64.268
-66.341
-68.416
-70.45
-72.417
-74.296
-76.053
-77.645
-79.013
-80.096
-80.855
-81.266
-81.32
-81.023
-80.404
-79.515
-78.448
-77.35
-76.375
-75.684
-75.431
-75.749
-76.754
-78.606
-81.512
-85.604
-90.886
-97.18
-104.081
-111.143
-117.973
-124.094
-128.889
-131.843
-132.707
-131.792
-130.083
-128.718
-128.672
-130.785
-135.827
-144.313
-156.159
-170.002
-183.124
-192.258
-194.134
-185.518
-163.231
-124.226
-66
10.009
98.372
193.641
289.575
385.583
487.595
593.662
697.067
782.23
820.51
796.567
707.213
559.094
379.177
191.219
13.517
-133.413
-241.355
-308.696
-337.775
-342.848
-338.637
-332.734
-328.651
-323.012
-310.306
-290.858
-267.475
-243.208
-221.248
-201.935
-184.005
-167.115
-151.178
-136.132
-122.457
-110.853
-101.944
-96.319
-94.339
-95.445
-98.435
-102.351
-106.225
-109.18
-110.705
-110.404
-108.088
-104.175
-99.487
-94.639
-90.1
-86.077
-82.5
-79.315
-76.429
-73.569
-70.341
-66.461
-61.777
-56.289
-50.14
-43.445
-36.291
-28.778
-21.031
-13.162
-5.264
2.582
10.345
18.004
25.522
32.871
40.024
46.958
53.669
60.173
66.473
72.569
78.456
84.117
89.542
94.728
99.667
104.352
108.773
112.92
116.784
120.361
123.646
126.629
129.298
131.637
133.635
135.282
136.572
137.501
138.064
138.258
138.079
137.53
136.611
135.321
133.659
131.628
129.228
126.464
123.341
119.867
116.049
111.899
107.426
102.644
97.566
92.206
86.58
80.704
74.594
68.269
61.746
55.045
48.186
41.188
34.072
26.861
19.575
12.235
4.864
-2.517
-9.886
-17.221
-24.503
-31.71
-38.822
-45.821
-52.687
-59.402
-65.95
-72.316
-78.485
-84.444
-90.183
-95.69
-100.957
-105.977
-110.743
-115.251
-119.497
-123.479
-127.195
-130.647
-133.836
-136.763
-139.433
-141.851
-144.022
-145.952
-147.649
-149.122
-150.379
-151.43
-152.284
-152.952
-153.446
-153.775
-153.952
-153.987
-153.891
-153.676
-153.353
-152.931
-152.421
-151.833
-151.177
-150.461
-149.695
-148.887
-148.046
-147.178
-146.293
-145.397
-144.496
-143.598
-142.707
-141.829
-140.969
-140.132
-139.321
-138.541
-137.793
-137.081
-136.409
-135.776
-135.186
-134.64
-134.136
-133.678
-133.264
-132.893
-132.565
-132.277
-132.026
-131.812
-131.632
-131.481
-131.357
-131.254
-131.169
-131.096
-131.031
-130.967
-130.896
-130.811
-130.705
-130.571
-130.401
-130.187
-129.92
-129.593
-129.199
-128.733
-128.187
-127.554
-126.827
-126
-125.067
-124.025
-122.868
-121.593
-120.197
-118.681
-117.048
-115.305
-113.456
-111.507
-109.463
-107.332
-105.123
-102.845
-100.504
-98.109
-95.668
-93.195
-90.704
-88.212
-85.731
-83.272
-80.846
-78.461
-76.128
-73.852
-71.635
-69.486
-67.411
-65.423
-63.539
-61.775
-60.137
-58.638
-57.279
-56.058
-54.97
-53.997
-53.111
-52.295
-51.53
-50.803
-50.099
-49.377
-48.595
-47.726
-46.754
-45.688
-44.514
-43.175
-41.629
-39.884
-37.992
-36.065
-34.154
-32.203
-30.271
-28.598
-27.565
-27.602
-28.887
-31.282
-34.729
-39.322
-44.884
-50.804
-55.836
-58.486
-57.971
-54.286
-47.56
-37.916
-25.977
-13.195
-2.228
4.002
3.558
-4.467
-20.105
-43.12
-71.092
-98.718
-121.482
-135.367
-138.789
-134.432
-118.145
-81.425
-19.222
74.842
195.519
328.478
466.63
602.086
729.447
845.015
934.364
978.427
961.845
877.551
730.263
538.782
329.506
127.333
-42.541
-164.183
-236.475
-265.705
-268.742
-263.328
-256.259
-248.658
-235.566
-210.95
-176.847
-138.649
-101.727
-71.429
-49.147
-34.118
-26.429
-25.186
-28.512
-34.611
-41.604
-47.7
-52.22
-54.881
-54.857
-51.887
-46.46
-39.257
-31.358
-23.96
-17.517
-12.182
-8.305
-5.891
-4.748
-4.644
-4.974
-5.054
-4.565
-3.336
-1.257
1.624
5.305
9.812
15.03
20.818
27.087
33.757
40.801
48.211
55.924
63.849
71.879
79.921
87.918
95.837
103.65
111.336
118.875
126.254
133.481
140.56
147.489
154.258
160.848
167.245
173.446
179.453
185.27
190.896
196.324
201.546
206.551
211.326
215.857
220.128
224.118
227.809
231.189
234.247
236.976
239.365
241.405
243.09
244.411
245.364
245.94
246.135
245.942
245.359
244.383
243.016
241.259
239.113
236.585
233.679
230.404
226.769
222.783
218.46
213.811
208.852
203.598
198.066
192.276
186.246
179.997
173.551
166.932
160.164
153.271
146.277
139.207
132.088
124.944
117.799
110.68
103.609
96.611
89.708
82.925
76.282
69.8
63.498
57.394
51.504
45.843
40.423
35.256
30.351
25.714
21.353
17.272
13.472
9.955
6.72
3.763
1.082
-1.331
-3.483
-5.383
-7.042
-8.473
-9.687
-10.7
-11.525
-12.177
-12.673
-13.028
-13.259
-13.381
-13.412
-13.368
-13.264
-13.118
-12.944
-12.757
-12.572
-12.4
-12.255
-12.148
-12.089
-12.088
-12.154
-12.294
-12.517
-12.827
-13.231
-13.732
-14.333
-15.036
-15.843
-16.753
-17.765
-18.876
-20.085
-21.389
-22.783
-24.265
-25.829
-27.472
-29.189
-30.974
-32.824
-34.731
-36.692
-38.7
-40.749
-42.834
-44.951
-47.095
-49.262
-51.447
-53.648
-55.861
-58.083
-60.31
-62.54
-64.769
-66.995
-69.216
-71.43
-73.636
-75.833
-78.021
-80.2
-82.372
-84.537
-86.697
-88.852
-91.003
-93.152
-95.298
-97.443
-99.587
-101.73
-103.873
-106.022
-108.18
-110.352
-112.54
-114.748
-116.981
-119.24
-121.527
-123.838
-126.167
-128.508
-130.859
-133.217
-135.58
-137.944
-140.303
-142.65
-144.981
-147.287
-149.558
-151.777
-153.921
-155.977
-157.936
-159.801
-161.583
-163.29
-164.92
-166.469
-167.931
-169.296
-170.548
-171.656
-172.569
-173.247
-173.656
-173.769
-173.573
-173.042
-172.134
-170.805
-168.998
-166.655
-163.755
-160.307
-156.32
-151.838
-146.911
-141.591
-135.999
-130.287
-124.599
-119.095
-113.916
-109.165
-105.019
-101.767
-99.594
-98.523
-98.341
-98.479
-98.356
-97.57
-95.651
-91.961
-86.134
-78.286
-69.208
-60.7
-54.671
-52.409
-55.022
-63.527
-78.083
-97.667
-119.846
-140.328
-154.406
-157.91
-146.687
-116.734
-64.914
8.099
97.475
197.142
299.81
403.985
514.51
628.553
738.557
827.982
867.587
841.868
748.278
594.865
409.536
216.453
33.029
-122.633
-243.738
-328.419
-376.875
-399.551
-408.187
-409.049
-405.813
-396.618
-377.6
-350.548
-319.409
-287.978
-260.464
-238.387
-221.976
-211.909
-207.549
-207.525
-210.584
-215.59
-221.889
-228.863
-235.231
-239.6
-241.268
-240.178
-236.746
-231.503
-224.737
-216.895
-208.88
-201.508
-195.233
-190.204
-186.208
-182.888
-179.959
-177.071
-173.748
-169.66
-164.643
-158.622
-151.667
-143.883
-135.345
-126.158
-116.45
-106.299
-95.76
-84.888
-73.725
-62.345
-50.858
-39.344
-27.868
-16.48
-5.214
5.898
16.822
27.547
38.073
48.395
58.498
68.359
77.948
87.247
96.245
104.932
113.299
121.335
129.027
136.363
143.327
149.905
156.077
161.821
167.117
171.947
176.299
180.163
183.531
186.395
188.75
190.59
191.915
192.723
193.011
192.781
192.032
190.771
189.003
186.738
183.985
180.756
177.066
172.931
168.369
163.399
158.042
152.321
146.258
139.881
133.215
126.288
119.128
111.764
104.225
96.543
88.748
80.869
72.937
64.983
57.037
49.127
41.284
33.535
25.906
18.426
11.119
4.009
-2.879
-9.526
-15.909
-22.012
-27.816
-33.308
-38.473
-43.302
-47.783
-51.912
-55.681
-59.087
-62.129
-64.808
-67.124
-69.081
-70.684
-71.941
-72.858
-73.445
-73.714
-73.674
-73.339
-72.723
-71.84
-70.705
-69.334
-67.742
-65.947
-63.965
-61.813
-59.508
-57.068
-54.508
-51.848
-49.102
-46.289
-43.423
-40.522
-37.599
-34.671
-31.75
-28.851
-25.986
-23.168
-20.409
-17.718
-15.108
-12.586
-10.162
-7.843
-5.636
-3.547
-1.582
0.255
1.962
3.534
4.972
6.272
7.434
8.459
9.346
10.099
10.718
11.206
11.568
11.806
11.927
11.936
11.84
11.645
11.357
10.984
10.535
10.018
9.441
8.814
8.146
7.447
6.727
5.997
5.267
4.546
3.844
3.169
2.532
1.941
1.402
0.924
0.512
0.174
-0.084
-0.257
-0.342
-0.334
-0.231
-0.031
0.268
0.663
1.148
1.72
2.371
3.094
3.883
4.727
5.615
6.541
7.498
8.481
9.482
10.493
11.499
12.489
13.449
14.368
15.234
16.033
16.752
17.384
17.933
18.396
18.77
19.042
19.184
19.174
18.999
18.645
18.104
17.379
16.478
15.43
14.289
13.103
11.916
10.764
9.658
8.622
7.691
6.899
6.305
5.955
5.869
6.087
6.624
7.428
8.432
9.518
10.514
11.307
11.765
11.733
11.104
9.754
7.57
4.501
0.387
-5.011
-11.744
-19.782
-28.892
-38.444
-47.857
-56.608
-63.839
-68.704
-70.837
-70.074
-66.887
-62.862
-59.495
-58.108
-60.677
-67.454
-76.456
-86.319
-94.338
-100.094
-107.508
-115.278
-118.46
-106.668
-63.779
16.309
130.774
270.167
419.125
569.188
714.39
844.84
947.912
1003.29
993.017
911.241
762.288
567.229
354.612
150.807
-18.157
-141.82
-222.819
-270.044
-301.006
-324.762
-341.327
-347.541
-335.694
-305.084
-261.317
-210.682
-161.128
-117.134
-80.214
-52.449
-34.384
-25.251
-24.269
-29.636
-38.992
-50.879
-63.48
-74.188
-81.526
-84.889
-84.044
-79.659
-72.677
-63.664
-53.648
-44.145
-36.005
-29.658
-25.253
-22.404
-20.692
-19.796
-19.202
-18.293
-16.713
-14.287
-10.964
-6.869
-2.088
3.328
9.28
15.663
22.405
29.463
36.8
44.391
52.175
60.055
67.955
75.819
83.603
91.282
98.835
106.241
113.488
120.583
127.522
134.291
140.872
147.245
153.393
159.312
165
170.452
175.663
180.628
185.338
189.782
193.948
197.817
201.372
204.594
207.467
209.98
212.123
213.888
215.267
216.253
216.841
217.028
216.811
216.186
215.152
213.708
211.856
209.602
206.95
203.908
200.484
196.687
192.53
188.023
183.182
178.02
172.553
166.797
160.77
154.493
147.985
141.266
134.359
127.285
120.069
112.735
105.306
97.807
90.263
82.698
75.138
67.606
60.127
52.724
45.419
38.235
31.191
24.31
17.608
11.103
4.812
-1.25
-7.07
-12.636
-17.937
-22.963
-27.707
-32.162
-36.323
-40.186
-43.75
-47.013
-49.976
-52.642
-55.014
-57.096
-58.894
-60.416
-61.67
-62.665
-63.412
-63.922
-64.208
-64.281
-64.155
-63.844
-63.361
-62.72
-61.934
-61.019
-59.987
-58.853
-57.628
-56.328
-54.964
-53.549
-52.094
-50.612
-49.113
-47.609
-46.108
-44.62
-43.156
-41.722
-40.328
-38.981
-37.687
-36.453
-35.283
-34.183
-33.156
-32.207
-31.337
-30.549
-29.844
-29.224
-28.69
-28.241
-27.877
-27.597
-27.401
-27.287
-27.252
-27.294
-27.409
-27.595
-27.847
-28.164
-28.54
-28.971
-29.452
-29.98
-30.549
-31.154
-31.788
-32.447
-33.123
-33.811
-34.505
-35.199
-35.886
-36.56
-37.217
-37.851
-38.458
-39.032
-39.569
-40.064
-40.513
-40.914
-41.263
-41.556
-41.793
-41.972
-42.095
-42.166
-42.19
-42.171
-42.114
-42.026
-41.913
-41.782
-41.636
-41.478
-41.308
-41.131
-40.953
-40.783
-40.628
-40.495
-40.391
-40.323
-40.298
-40.322
-40.394
-40.506
-40.658
-40.85
-41.095
-41.416
-41.833
-42.357
-42.997
-43.755
-44.628
-45.604
-46.656
-47.738
-48.807
-49.827
-50.77
-51.624
-52.367
-52.968
-53.385
-53.558
-53.442
-52.998
-52.206
-51.081
-49.659
-47.995
-46.175
-44.308
-42.515
-40.933
-39.671
-38.831
-38.532
-38.865
-40.001
-42.204
-45.54
-49.966
-55.323
-61.069
-66.617
-71.521
-75.056
-76.381
-75.302
-71.878
-66.437
-60.68
-56.501
-55.046
-58.086
-66.063
-76.59
-88.942
-102.887
-117.727
-135.365
-151.177
-153.902
-132.33
-75.875
13.175
122.273
238.891
352.774
466.174
583.985
701.049
804.784
871.664
879.41
822.85
708.163
550.502
371.088
185.446
6.375
-150.054
-271.204
-348.973
-378.8
-368.041
-332.538
-286.823
-246.983
-223.034
-213.352
-212.94
-212.232
-202.342
-182.263
-155.792
-129.959
-110.443
-99.124
-94.827
-94.159
-95.342
-97.813
-100.688
-103.905
-106.988
-108.66
-108.542
-106.805
-103.43
-98.979
-94.373
-89.972
-86.081
-83.104
-80.975
-79.492
-78.532
-77.682
-76.42
-74.51
-71.802
-68.2
-63.794
-58.648
-52.795
-46.361
-39.48
-32.237
-24.72
-16.991
-9.093
-1.111
6.875
14.805
22.62
30.287
37.787
45.102
52.228
59.168
65.924
72.491
78.858
85.011
90.936
96.623
102.064
107.255
112.189
116.859
121.261
125.385
129.22
132.752
135.964
138.836
141.355
143.507
145.283
146.677
147.682
148.292
148.504
148.316
147.727
146.733
145.334
143.527
141.315
138.701
135.688
132.283
128.494
124.33
119.801
114.92
109.702
104.161
98.315
92.181
85.778
79.127
72.249
65.168
57.904
50.484
42.931
35.271
27.529
19.732
11.904
4.071
-3.741
-11.507
-19.205
-26.81
-34.3
-41.653
-48.849
-55.867
-62.687
-69.293
-75.668
-81.796
-87.665
-93.261
-98.575
-103.599
-108.325
-112.75
-116.869
-120.68
-124.184
-127.383
-130.279
-132.876
-135.18
-137.198
-138.938
-140.411
-141.625
-142.592
-143.325
-143.835
-144.135
-144.239
-144.159
-143.908
-143.5
-142.948
-142.265
-141.464
-140.558
-139.56
-138.482
-137.337
-136.136
-134.891
-133.613
-132.311
-130.995
-129.675
-128.357
-127.051
-125.763
-124.498
-123.264
-122.065
-120.905
-119.79
-118.723
-117.705
-116.739
-115.827
-114.971
-114.171
-113.426
-112.737
-112.103
-111.523
-110.998
-110.526
-110.104
-109.731
-109.404
-109.121
-108.877
-108.669
-108.492
-108.34
-108.208
-108.091
-107.983
-107.878
-107.768
-107.648
-107.511
-107.353
-107.165
-106.942
-106.677
-106.365
-106
-105.577
-105.092
-104.54
-103.918
-103.223
-102.459
-101.626
-100.726
-99.761
-98.733
-97.646
-96.504
-95.31
-94.063
-92.762
-91.41
-90.012
-88.579
-87.117
-85.634
-84.136
-82.634
-81.138
-79.658
-78.198
-76.753
-75.326
-73.92
-72.554
-71.254
-70.04
-68.921
-67.909
-67.008
-66.217
-65.536
-64.941
-64.386
-63.838
-63.267
-62.661
-62.021
-61.332
-60.564
-59.684
-58.645
-57.421
-56.001
-54.361
-52.502
-50.462
-48.291
-46.085
-43.957
-41.989
-40.276
-38.923
-38.021
-37.688
-38.014
-39.104
-41.141
-44.226
-48.334
-53.287
-58.62
-63.753
-68.193
-71.359
-72.578
-71.439
-67.841
-62.282
-56.091
-50.793
-47.756
-48.242
-53.283
-63.396
-78.279
-96.139
-113.729
-127.252
-132.453
-125.137
-101.494
-57.852
6.334
87.088
179.457
277.541
378.709
487.578
604.511
722.815
828.656
895.165
899.657
834.176
701.165
520.892
321.714
126.504
-41.898
-167.511
-246.001
-279.134
-278.029
-259.872
-239.117
-222.74
-211.933
-203.474
-190.67
-172.454
-149.933
-123.487
-98.14
-76.662
-59.299
-47.395
-39.653
-34.318
-31.163
-29.812
-29.899
-30.885
-32.1
-32.837
-32.357
-30.502
-27.266
-22.579
-16.93
-11.097
-5.481
-0.426
3.753
7.141
9.879
12.079
14.142
16.559
19.589
23.402
28.087
33.568
39.781
46.686
54.156
62.056
70.297
78.794
87.489
96.341
105.271
114.201
123.072
131.831
140.44
148.88
157.129
165.178
173.031
180.686
188.137
195.374
202.378
209.132
215.624
221.841
227.776
233.418
238.756
243.78
248.481
252.843
256.85
260.485
263.724
266.554
268.961
270.935
272.469
273.554
274.186
274.361
274.078
273.333
272.127
270.456
268.322
265.726
262.674
259.172
255.228
250.852
246.057
240.856
235.265
229.301
222.982
216.329
209.362
202.104
194.577
186.806
178.815
170.629
162.274
153.776
145.161
136.454
127.682
118.869
110.041
101.22
92.432
83.698
75.041
66.48
58.036
49.727
41.573
33.589
25.79
18.19
10.801
3.633
-3.304
-10.005
-16.463
-22.676
-28.641
-34.357
-39.826
-45.048
-50.027
-54.767
-59.273
-63.55
-67.605
-71.445
-75.077
-78.508
-81.747
-84.801
-87.677
-90.383
-92.928
-95.317
-97.557
-99.656
-101.619
-103.453
-105.164
-106.756
-108.236
-109.607
-110.875
-112.044
-113.118
-114.1
-114.993
-115.8
-116.524
-117.168
-117.734
-118.224
-118.641
-118.987
-119.265
-119.479
-119.632
-119.728
-119.772
-119.768
-119.722
-119.641
-119.53
-119.398
-119.25
-119.094
-118.938
-118.791
-118.663
-118.561
-118.494
-118.47
-118.499
-118.587
-118.743
-118.973
-119.282
-119.677
-120.161
-120.74
-121.418
-122.197
-123.08
-124.067
-125.161
-126.362
-127.67
-129.082
-130.594
-132.203
-133.906
-135.698
-137.572
-139.523
-141.542
-143.625
-145.766
-147.962
-150.205
-152.487
-154.803
-157.146
-159.509
-161.884
-164.258
-166.619
-168.958
-171.266
-173.541
-175.778
-177.971
-180.116
-182.21
-184.253
-186.242
-188.171
-190.025
-191.794
-193.472
-195.064
-196.586
-198.048
-199.453
-200.804
-202.103
-203.341
-204.507
-205.57
-206.479
-207.19
-207.669
-207.894
-207.857
-207.543
-206.923
-205.973
-204.658
-202.956
-200.863
-198.355
-195.428
-192.141
-188.568
-184.834
-181.096
-177.444
-173.989
-170.876
-168.214
-166.132
-164.74
-164.047
-164.143
-165.231
-167.359
-170.473
-174.343
-178.375
-182.039
-184.975
-186.578
-186.129
-183.267
-177.952
-170.689
-162.74
-155.41
-149.687
-146.797
-148.202
-153.182
-158.938
-162.9
-161.09
-153.34
-144.522
-133.786
-118.237
-91.056
-37.49
47.393
162.077
303.308
456.317
607.756
744.334
842.104
881.72
850.458
742.694
577.584
386.026
198.039
44.212
-65.917
-138.907
-184.402
-219.693
-252.774
-281.521
-303.481
-312.022
-304.704
-285.929
-260.899
-235.591
-214.036
-196.471
-181.27
-166.653
-151.623
-135.421
-117.683
-98.531
-77.804
-56.34
-36.198
-18.982
-5.643
3.278
8.22
10.216
9.829
7.939
6.048
5.201
6.058
8.983
13.551
18.918
24.721
30.727
36.528
41.998
47.068
51.665
56.103
60.861
66.149
72.043
78.558
85.556
92.951
100.728
108.756
116.883
124.995
132.981
140.802
148.479
156.012
163.391
170.608
177.645
184.507
191.227
197.826
204.314
210.695
216.962
223.114
229.156
235.087
240.903
246.588
252.124
257.493
262.681
267.67
272.444
276.979
281.247
285.223
288.884
292.208
295.175
297.765
299.955
301.727
303.066
303.954
304.377
304.318
303.763
302.7
301.119
299.013
296.378
293.21
289.511
285.286
280.541
275.285
269.532
263.295
256.594
249.448
241.88
233.917
225.587
216.92
207.949
198.708
189.234
179.564
169.737
159.79
149.765
139.7
129.637
119.614
109.67
99.843
90.172
80.693
71.441
62.449
53.749
45.369
37.337
29.676
22.409
15.554
9.128
3.142
-2.392
-7.466
-12.078
-16.224
-19.907
-23.131
-25.902
-28.231
-30.129
-31.611
-32.691
-33.39
-33.726
-33.719
-33.392
-32.769
-31.872
-30.727
-29.358
-27.789
-26.045
-24.152
-22.132
-20.01
-17.809
-15.551
-13.257
-10.947
-8.64
-6.356
-4.109
-1.914
0.214
2.265
4.228
6.093
7.856
9.51
11.051
12.476
13.785
14.977
16.052
17.015
17.867
18.613
19.257
19.805
20.264
20.641
20.943
21.177
21.351
21.472
21.549
21.59
21.603
21.596
21.578
21.556
21.539
21.535
21.55
21.592
21.665
21.775
21.926
22.122
22.365
22.656
22.997
23.387
23.828
24.318
24.854
25.434
26.055
26.714
27.405
28.121
28.852
29.588
30.321
31.041
31.736
32.396
33.009
33.567
34.066
34.498
34.857
35.13
35.308
35.379
35.334
35.167
34.866
34.422
33.829
33.086
32.2
31.174
30.006
28.686
27.193
25.514
23.646
21.587
19.343
16.922
14.343
11.642
8.878
6.105
3.37
0.704
-1.872
-4.329
-6.627
-8.716
-10.537
-12.049
-13.223
-14.036
-14.494
-14.635
-14.521
-14.263
-13.991
-13.831
-13.929
-14.424
-15.425
-17.037
-19.317
-22.354
-26.339
-31.381
-37.441
-44.3
-51.497
-58.576
-65.243
-71.041
-75.234
-77.266
-76.949
-74.727
-71.732
-68.896
-66.823
-66.382
-68.693
-74.648
-82.998
-89.955
-91.642
-85.84
-74.829
-63.108
-50.096
-28.837
11.88
81.365
180.084
297.472
419.849
539.353
648.113
742.212
815.14
846.52
824.521
743.237
603.257
428.379
240.605
61.131
-84.782
-190.862
-256.501
-287.262
-302.342
-311.53
-317.992
-321.27
-312.363
-288.845
-255.046
-215.944
-178.182
-145.223
-117.372
-95.482
-80.324
-71.853
-69.418
-71.722
-77.51
-85.979
-96.192
-106.523
-115.251
-121.407
-124.724
-125.494
-124.191
-121.09
-116.684
-111.994
-107.927
-104.959
-103.26
-102.594
-102.571
-102.975
-103.492
-103.63
-103.07
-101.644
-99.271
-96.067
-92.168
-87.632
-82.558
-77.063
-71.207
-65.061
-58.685
-52.107
-45.392
-38.607
-31.791
-24.993
-18.241
-11.552
-4.946
1.565
7.985
14.307
20.519
26.603
32.533
38.288
43.856
49.223
54.378
59.311
64.005
68.449
72.63
76.532
80.135
83.418
86.357
88.937
91.142
92.96
94.382
95.398
96
96.182
95.941
95.272
94.172
92.638
90.67
88.269
85.439
82.188
78.522
74.452
69.989
65.148
59.942
54.389
48.506
42.312
35.827
29.072
22.07
14.845
7.421
-0.178
-7.924
-15.792
-23.755
-31.786
-39.857
-47.944
-56.018
-64.055
-72.029
-79.916
-87.691
-95.333
-102.82
-110.131
-117.246
-124.147
-130.819
-137.246
-143.415
-149.315
-154.934
-160.265
-165.302
-170.038
-174.47
-178.596
-182.415
-185.927
-189.135
-192.043
-194.654
-196.976
-199.016
-200.782
-202.283
-203.53
-204.534
-205.305
-205.857
-206.201
-206.351
-206.319
-206.118
-205.762
-205.262
-204.633
-203.885
-203.033
-202.089
-201.062
-199.967
-198.814
-197.614
-196.377
-195.114
-193.834
-192.547
-191.262
-189.987
-188.73
-187.498
-186.298
-185.136
-184.019
-182.951
-181.938
-180.983
-180.09
-179.261
-178.5
-177.807
-177.183
-176.629
-176.144
-175.728
-175.38
-175.099
-174.883
-174.728
-174.631
-174.588
-174.595
-174.647
-174.736
-174.856
-175
-175.16
-175.328
-175.497
-175.655
-175.796
-175.909
-175.986
-176.018
-175.997
-175.911
-175.755
-175.518
-175.196
-174.782
-174.269
-173.652
-172.929
-172.1
-171.166
-170.128
-168.988
-167.749
-166.416
-164.995
-163.492
-161.909
-160.249
-158.518
-156.725
-154.881
-152.999
-151.089
-149.165
-147.238
-145.323
-143.435
-141.583
-139.769
-137.999
-136.279
-134.626
-133.07
-131.633
-130.328
-129.168
-128.16
-127.303
-126.597
-126.018
-125.523
-125.073
-124.634
-124.183
-123.72
-123.226
-122.668
-122.012
-121.196
-120.18
-118.947
-117.463
-115.705
-113.709
-111.521
-109.245
-107.033
-104.972
-103.151
-101.692
-100.674
-100.196
-100.362
-101.196
-102.798
-105.4
-109.077
-113.763
-119.263
-125.024
-130.515
-135.412
-139.098
-140.722
-139.818
-136.373
-130.859
-124.537
-118.731
-114.229
-112.152
-114.31
-120.431
-127.697
-133.325
-133.298
-127.642
-122.367
-118.472
-111.995
-92.758
-44.255
40.986
159.682
301.483
452.189
601.811
742.05
862.793
946.637
972.389
927.782
810.405
636.402
436.085
236.257
62.576
-70.18
-163.393
-221.218
-254.884
-278.226
-295.347
-307.589
-312.582
-303.592
-280.452
-247.155
-208.464
-170.554
-135.952
-104.462
-76.177
-51.541
-31.759
-17.525
-8.315
-3.327
-2.147
-4.466
-9.918
-17.298
-24.394
-29.773
-32.971
-33.856
-32.567
-29.215
-23.817
-16.986
-9.995
-3.655
1.764
6.281
10.235
13.857
17.204
20.526
24.275
28.74
34.038
40.141
46.849
54.018
61.596
69.504
77.64
85.913
94.224
102.491
110.688
118.795
126.782
134.627
142.306
149.799
157.105
164.238
171.205
178.002
184.621
191.044
197.256
203.249
209.021
214.567
219.881
224.953
229.775
234.341
238.647
242.682
246.432
249.88
253.012
255.818
258.291
260.423
262.209
263.642
264.718
265.434
265.787
265.772
265.387
264.627
263.491
261.978
260.09
257.83
255.202
252.212
248.869
245.181
241.159
236.814
232.159
227.208
221.976
216.479
210.734
204.761
198.578
192.205
185.664
178.978
172.169
165.259
158.274
151.236
144.169
137.099
130.049
123.043
116.104
109.257
102.525
95.929
89.493
83.236
77.178
71.337
65.731
60.374
55.282
50.465
45.935
41.7
37.769
34.147
30.839
27.846
25.169
22.807
20.76
19.021
17.588
16.452
15.607
15.043
14.751
14.719
14.937
15.39
16.067
16.952
18.031
19.288
20.71
22.279
23.98
25.797
27.715
29.717
31.788
33.912
36.075
38.261
40.456
42.648
44.822
46.967
49.071
51.125
53.117
55.039
56.882
58.638
60.301
61.864
63.322
64.669
65.901
67.015
68.008
68.879
69.625
70.247
70.745
71.121
71.378
71.518
71.543
71.46
71.272
70.985
70.608
70.147
69.609
69.002
68.338
67.625
66.874
66.093
65.294
64.486
63.68
62.887
62.116
61.378
60.681
60.035
59.449
58.934
58.497
58.145
57.885
57.723
57.665
57.714
57.869
58.129
58.493
58.956
59.516
60.167
60.902
61.714
62.6
63.554
64.57
65.638
66.743
67.872
69.013
70.153
71.281
72.381
73.436
74.435
75.377
76.255
77.059
77.769
78.354
78.79
79.066
79.171
79.099
78.846
78.409
77.803
77.069
76.242
75.357
74.432
73.471
72.492
71.533
70.645
69.894
69.314
68.914
68.705
68.699
68.885
69.228
69.65
70.033
70.27
70.268
69.934
69.164
67.831
65.823
62.975
59.089
54.08
47.968
40.932
33.364
25.685
18.281
11.674
6.479
3.132
1.824
2.165
3.155
3.755
3.069
0.335
-5.092
-13.658
-25.326
-38.808
-51.473
-60.256
-62.155
-54.269
-33.789
1.91
55.204
125.14
207.003
296.242
387.902
480.942
578.799
678.979
774.044
850.034
886.46
871.202
802.044
687.132
544.642
392.587
246.617
116.528
7.497
-79.502
-148.781
-203.035
-245.791
-277.898
-294.967
-295.437
-279.476
-250.056
-214.104
-177.046
-141.72
-110.004
-82.929
-61.421
-46.728
-39.066
-37.297
-39.723
-45.076
-52.141
-59.462
-65.946
-70.392
-71.971
-70.811
-67.466
-62.464
-56.579
-50.759
-45.577
-41.567
-39.059
-37.92
-37.881
-38.574
-39.493
-40.107
-40.106
-39.311
-37.643
-35.164
-31.927
-28.008
-23.531
-18.632
-13.409
-7.912
-2.185
3.743
9.807
15.91
21.977
27.956
33.812
39.528
45.092
50.487
55.712
60.779
65.694
70.454
75.053
79.472
83.698
87.729
91.564
95.201
98.639
101.874
104.898
107.703
110.277
112.603
114.665
116.443
117.922
119.088
119.931
120.443
120.612
120.432
119.894
118.992
117.718
116.066
114.029
111.602
108.781
105.568
101.962
97.968
93.589
88.832
83.708
78.227
72.401
66.245
59.773
53.002
45.953
38.645
31.1
23.341
15.394
7.282
-0.965
-9.321
-17.758
-26.247
-34.759
-43.265
-51.736
-60.143
-68.458
-76.653
-84.701
-92.575
-100.248
-107.698
-114.9
-121.833
-128.479
-134.819
-140.839
-146.526
-151.867
-156.856
-161.484
-165.748
-169.645
-173.175
-176.339
-179.142
-181.589
-183.689
-185.45
-186.885
-188.007
-188.828
-189.365
-189.633
-189.649
-189.432
-188.999
-188.37
-187.565
-186.602
-185.502
-184.284
-182.968
-181.573
-180.118
-178.619
-177.094
-175.558
-174.028
-172.517
-171.037
-169.602
-168.222
-166.906
-165.663
-164.499
-163.421
-162.433
-161.537
-160.736
-160.031
-159.422
-158.909
-158.49
-158.164
-157.929
-157.781
-157.716
-157.731
-157.819
-157.975
-158.192
-158.464
-158.782
-159.141
-159.532
-159.948
-160.381
-160.825
-161.27
-161.709
-162.134
-162.537
-162.909
-163.244
-163.535
-163.775
-163.959
-164.082
-164.14
-164.13
-164.05
-163.896
-163.666
-163.36
-162.973
-162.507
-161.96
-161.331
-160.621
-159.832
-158.97
-158.04
-157.049
-156.005
-154.916
-153.791
-152.639
-151.468
-150.284
-149.09
-147.891
-146.697
-145.513
-144.35
-143.213
-142.108
-141.041
-140.021
-139.048
-138.124
-137.246
-136.406
-135.602
-134.841
-134.13
-133.492
-132.94
-132.479
-132.117
-131.863
-131.713
-131.662
-131.689
-131.747
-131.803
-131.826
-131.784
-131.659
-131.42
-131.015
-130.396
-129.505
-128.288
-126.722
-124.798
-122.504
-119.852
-116.86
-113.58
-110.142
-106.692
-103.384
-100.356
-97.682
-95.5
-94.029
-93.444
-93.847
-95.131
-96.901
-98.785
-100.551
-101.868
-102.284
-101.37
-98.79
-94.909
-90.906
-87.928
-86.782
-88.38
-93.746
-103.606
-118.434
-136.059
-151.467
-161.792
-165.221
-161.462
-153.398
-136.431
-102.085
-46.32
36.493
142.227
259.068
383.659
509.817
629.502
736.671
812.99
837.781
802.733
704.964
553.687
373.087
182.689
3.189
-143.274
-251
-318.957
-353.654
-373.975
-389.252
-402.682
-413.479
-412.045
-395.218
-366.348
-329.646
-291.751
-256.034
-222.332
-191
-162.964
-139.241
-120.499
-106.483
-96.353
-89.568
-85.776
-84.156
-83.1
-80.934
-76.7
-70.133
-61.544
-51.465
-40.346
-28.865
-18.136
-9.125
-2.296
2.249
4.875
6.17
6.547
6.469
6.513
7.038
8.256
10.319
13.182
16.805
21.255
26.515
32.543
39.346
46.853
54.97
63.59
72.508
81.543
90.58
99.519
108.311
116.935
125.347
133.529
141.483
149.17
156.554
163.603
170.265
176.525
182.397
187.904
193.104
198.051
202.77
207.283
211.597
215.699
219.581
223.221
226.584
229.65
232.406
234.84
236.953
238.737
240.18
241.271
241.993
242.328
242.262
241.785
240.885
239.56
237.81
235.637
233.052
230.064
226.684
222.92
218.782
214.281
209.428
204.237
198.72
192.892
186.772
180.378
173.732
166.856
159.773
152.507
145.084
137.529
129.867
122.123
114.323
106.492
98.655
90.837
83.06
75.349
67.726
60.213
52.832
45.602
38.542
31.668
24.997
18.543
12.318
6.335
0.603
-4.867
-10.069
-14.995
-19.64
-24
-28.074
-31.86
-35.361
-38.578
-41.516
-44.181
-46.578
-48.716
-50.603
-52.248
-53.662
-54.855
-55.84
-56.627
-57.229
-57.659
-57.929
-58.052
-58.041
-57.909
-57.669
-57.335
-56.919
-56.435
-55.897
-55.319
-54.713
-54.093
-53.472
-52.863
-52.277
-51.726
-51.222
-50.775
-50.395
-50.091
-49.873
-49.748
-49.725
-49.81
-50.008
-50.325
-50.765
-51.331
-52.027
-52.855
-53.815
-54.908
-56.136
-57.498
-58.994
-60.621
-62.377
-64.257
-66.258
-68.374
-70.598
-72.922
-75.337
-77.835
-80.407
-83.043
-85.733
-88.466
-91.233
-94.022
-96.823
-99.626
-102.419
-105.192
-107.937
-110.644
-113.305
-115.913
-118.461
-120.945
-123.361
-125.707
-127.982
-130.183
-132.311
-134.369
-136.361
-138.289
-140.157
-141.961
-143.705
-145.394
-147.035
-148.635
-150.197
-151.723
-153.219
-154.694
-156.161
-157.628
-159.094
-160.548
-161.986
-163.413
-164.843
-166.298
-167.792
-169.327
-170.908
-172.547
-174.252
-176.031
-177.869
-179.724
-181.558
-183.333
-185.042
-186.707
-188.331
-189.914
-191.412
-192.739
-193.843
-194.702
-195.301
-195.669
-195.79
-195.557
-195.054
-194.553
-194.309
-194.65
-195.668
-197.092
-198.868
-201.254
-204.263
-207.667
-211.056
-213.549
-214.705
-214.894
-214.181
-212.239
-208.906
-204.171
-198.563
-193.726
-191.093
-191.161
-194.578
-202.017
-213.932
-230.642
-251.393
-273.512
-293.602
-308.476
-314.801
-309.3
-288.751
-249.959
-190.72
-113.183
-23.134
73.975
171.806
269.375
371.648
475.594
573.978
652.084
683.589
655.511
566.473
423.26
250.645
70.273
-100.54
-241.2
-341.735
-399.098
-415.948
-407.325
-388.812
-368.786
-351.359
-333.9
-311.916
-286.793
-261.261
-237.923
-220.242
-208.458
-200.67
-195.489
-190.98
-185.133
-177.727
-169.239
-159.474
-148.778
-137.802
-126.775
-116.287
-107.14
-99.24
-92.189
-86.19
-81.161
-76.902
-73.457
-70.517
-67.706
-64.997
-62.329
-59.405
-56.066
-52.174
-47.558
-42.26
-36.319
-29.705
-22.459
-14.659
-6.376
2.296
11.276
20.515
29.95
39.495
49.065
58.58
67.989
77.255
86.353
95.267
103.979
112.485
120.802
128.937
136.888
144.656
152.229
159.601
166.773
173.743
180.506
187.06
193.394
199.499
205.364
210.974
216.313
221.362
226.099
230.508
234.572
238.28
241.621
244.582
247.156
249.333
251.107
252.474
253.426
253.96
254.07
253.757
253.02
251.862
250.286
248.298
245.904
243.113
239.936
236.384
232.472
228.212
223.622
218.721
213.528
208.064
202.352
196.416
190.28
183.971
177.515
170.939
164.271
157.539
150.77
143.991
137.23
130.513
123.866
117.314
110.882
104.592
98.468
92.529
86.796
81.286
76.015
71
66.252
61.785
57.606
53.726
50.148
46.879
43.92
41.272
38.934
36.902
35.171
33.735
32.586
31.715
31.11
30.761
30.654
30.777
31.115
31.653
32.377
33.272
34.322
35.513
36.829
38.255
39.778
41.382
43.055
44.782
46.55
48.348
50.164
51.986
53.804
55.609
57.392
59.144
60.86
62.534
64.159
65.734
67.253
68.716
70.121
71.467
72.753
73.981
75.151
76.263
77.318
78.317
79.263
80.155
80.997
81.788
82.53
83.227
83.88
84.491
85.063
85.598
86.097
86.565
87.003
87.415
87.803
88.169
88.518
88.852
89.174
89.486
89.792
90.092
90.389
90.685
90.98
91.274
91.57
91.866
92.166
92.471
92.782
93.101
93.43
93.771
94.127
94.498
94.884
95.281
95.687
96.1
96.516
96.933
97.345
97.749
98.145
98.535
98.921
99.3
99.669
100.021
100.355
100.668
100.958
101.219
101.448
101.644
101.811
101.958
102.089
102.203
102.283
102.306
102.253
102.116
101.888
101.563
101.14
100.625
100.045
99.448
98.88
98.377
97.962
97.648
97.463
97.439
97.631
98.093
98.866
99.973
101.42
103.194
105.26
107.563
110.013
112.464
114.754
116.702
118.151
118.975
119.087
118.357
116.55
113.499
109.18
103.782
97.731
91.428
85.137
79.244
74.385
71.115
69.689
69.689
69.993
69.656
67.926
63.853
56.454
44.92
30.259
16.124
6.511
3.834
6.705
11.828
19.855
37.537
76.364
144.904
243.466
362.737
488.612
613.945
734.077
845.188
941.337
1001.179
1004.297
939.393
803.089
617.265
413.135
219.163
64.709
-41.387
-105.222
-137.792
-158.929
-178.758
-197.394
-211.776
-213.491
-200.206
-175.528
-144.122
-112.739
-84.686
-60.089
-39.5
-22.592
-9.055
0.319
5.76
8.41
8.68
7.283
5.474
3.699
2.447
2.728
4.769
8.29
13.198
18.839
24.23
29.013
32.874
35.387
36.573
36.584
35.602
34.127
32.73
31.681
31.136
31.187
31.776
32.876
34.451
36.37
38.492
40.724
43.009
45.312
47.615
49.857
51.946
53.815
55.416
56.725
57.737
58.456
58.885
59.04
58.956
58.661
58.176
57.518
56.694
55.714
54.595
53.36
52.029
50.625
49.166
47.664
46.133
44.578
43.002
41.404
39.781
38.129
36.449
34.739
33.001
31.233
29.433
27.599
25.728
23.815
21.852
19.83
17.742
15.578
13.331
10.992
8.555
6.013
3.357
0.584
-2.311
-5.334
-8.486
-11.772
-15.191
-18.745
-22.431
-26.248
-30.189
-34.251
-38.426
-42.705
-47.076
-51.529
-56.052
-60.63
-65.248
-69.892
-74.544
-79.189
-83.809
-88.387
-92.904
-97.343
-101.686
-105.914
-110.012
-113.963
-117.752
-121.365
-124.789
-128.014
-131.03
-133.828
-136.402
-138.747
-140.858
-142.733
-144.374
-145.779
-146.954
-147.902
-148.631
-149.148
-149.462
-149.586
-149.531
-149.311
-148.938
-148.428
-147.797
-147.059
-146.231
-145.328
-144.367
-143.363
-142.332
-141.288
-140.247
-139.22
-138.22
-137.258
-136.344
-135.486
-134.692
-133.967
