ecg_data_columns
-62.92
-62.886
-63.822
-65.638
-68.143
-71.051
-73.813
-75.995
-77.477
-78.1
-77.535
-75.706
-72.812
-69.206
-66.115
-65.261
-67.2
-71.801
-79.143
-86.636
-91.329
-93.078
-88.729
-77.629
-61.633
-34.935
5.412
62.008
138.122
223.692
307.254
377.574
422.868
442.458
436.878
406.083
353.803
281.387
192.472
94.909
-4.812
-99.979
-183.147
-249.188
-295.209
-319.769
-323.983
-310.624
-282
-241.669
-195.227
-148.18
-105.01
-68.767
-40.49
-20.676
-10.498
-9.744
-16.261
-26.978
-38.491
-48.617
-56.733
-62.2
-63.89
-61.359
-54.956
-45.93
-36.285
-27.198
-18.906
-11.585
-5.416
-0.481
3.137
5.774
8.202
10.86
13.893
17.341
21.073
25.04
29.3
33.811
38.453
43.144
47.792
52.344
56.803
61.124
65.267
69.21
72.914
76.366
79.573
82.541
85.295
87.868
90.265
92.488
94.536
96.409
98.12
99.687
101.117
102.428
103.638
104.767
105.842
106.884
107.902
108.902
109.887
110.853
111.805
112.745
113.673
114.591
115.499
116.396
117.279
118.147
118.991
119.801
120.563
121.261
121.881
122.408
122.824
123.113
123.26
123.249
123.065
122.692
122.116
121.321
120.295
119.022
117.49
115.686
113.599
111.218
108.536
105.547
102.246
98.629
94.697
90.45
85.892
81.029
75.866
70.414
64.685
58.692
52.452
45.982
39.304
32.44
25.414
18.25
10.975
3.615
-3.802
-11.249
-18.698
-26.123
-33.496
-40.789
-47.978
-55.035
-61.937
-68.659
-75.178
-81.474
-87.525
-93.313
-98.821
-104.034
-108.939
-113.524
-117.778
-121.694
-125.266
-128.49
-131.365
-133.89
-136.069
-137.907
-139.409
-140.585
-141.445
-142.001
-142.267
-142.258
-141.989
-141.477
-140.74
-139.795
-138.661
-137.357
-135.901
-134.314
-132.613
-130.818
-128.946
-127.016
-125.043
-123.045
-121.036
-119.031
-117.044
-115.086
-113.169
-111.303
-109.499
-107.764
-106.104
-104.525
-103.029
-101.619
-100.295
-99.055
-97.894
-96.807
-95.787
-94.827
-93.917
-93.047
-92.204
-91.377
-90.553
-89.717
-88.855
-87.951
-86.988
-85.951
-84.824
-83.59
-82.235
-80.741
-79.095
-77.283
-75.294
-73.115
-70.735
-68.143
-65.329
-62.285
-59.004
-55.481
-51.711
-47.692
-43.425
-38.914
-34.17
-29.202
-24.02
-18.638
-13.071
-7.336
-1.449
4.573
10.718
16.967
23.3
29.694
36.12
42.553
48.964
55.323
61.6
67.765
73.79
79.655
85.345
90.835
96.102
101.116
105.838
110.239
114.302
118.004
121.335
124.3
126.909
129.196
131.209
132.977
134.531
135.898
137.095
138.161
139.13
140.016
140.854
141.666
142.456
143.242
144.009
144.672
145.163
145.387
145.231
144.649
143.567
141.867
139.452
136.2
132.013
126.9
120.833
113.73
105.689
96.908
87.739
78.825
70.724
63.817
58.504
55.104
53.527
53.508
54.618
55.957
56.747
56.465
54.657
51.305
47.399
44.408
43.719
47.295
57.097
74.914
102.729
141.654
190.835
248.327
312.101
379.077
445.505
507.045
558.204
594.073
611.801
609.766
586.702
542.763
479.783
401.218
312.542
219.725
127.826
41.486
-34.4
-95.816
-140.7
-168.766
-181.557
-181.681
-171.68
-154.4
-133.683
-113.31
-95.729
-82.233
-73.017
-67.565
-65.476
-66.129
-68.11
-69.829
-70.316
-69.231
-66.819
-63.62
-59.998
-56.251
-52.89
-50.527
-49.534
-49.98
-51.685
-54.299
-57.502
-61.082
-64.818
-68.436
-71.744
-74.615
-76.947
-78.745
-80.019
-80.746
-80.928
-80.577
-79.704
-78.359
-76.613
-74.525
-72.172
-69.632
-66.973
-64.28
-61.62
-59.027
-56.534
-54.151
-51.878
-49.718
-47.669
-45.713
-43.841
-42.04
-40.292
-38.587
-36.91
-35.241
-33.56
-31.844
-30.073
-28.235
-26.321
-24.322
-22.235
-20.055
-17.783
-15.422
-12.976
-10.446
-7.833
-5.138
-2.365
0.479
3.387
6.353
9.365
12.41
15.474
18.538
21.585
24.596
27.55
30.428
33.207
35.864
38.376
40.719
42.869
44.803
46.494
47.918
49.05
49.866
50.344
50.463
50.202
49.543
48.47
46.97
45.029
42.639
39.792
36.484
32.712
28.478
23.784
18.637
13.046
7.023
0.583
-6.255
-13.472
-21.044
-28.946
-37.15
-45.626
-54.344
-63.269
-72.367
-81.603
-90.938
-100.334
-109.752
-119.152
-128.495
-137.741
-146.85
-155.786
-164.51
-172.989
-181.188
-189.077
-196.626
-203.808
-210.599
-216.978
-222.925
-228.423
-233.46
-238.024
-242.109
-245.71
-248.826
-251.457
-253.61
-255.29
-256.508
-257.277
-257.61
-257.525
-257.041
-256.179
-254.963
-253.417
-251.569
-249.446
-247.079
-244.497
-241.731
-238.812
-235.77
-232.633
-229.432
-226.193
-222.943
-219.708
-216.513
-213.38
-210.33
-207.385
-204.562
-201.877
-199.343
-196.972
-194.774
-192.755
-190.919
-189.271
-187.81
-186.536
-185.45
-184.547
-183.822
-183.271
-182.884
-182.652
-182.563
-182.605
-182.762
-183.018
-183.359
-183.768
-184.231
-184.733
-185.26
-185.798
-186.334
-186.856
-187.351
-187.807
-188.211
-188.553
-188.821
-189.009
-189.111
-189.121
-189.039
-188.862
-188.595
-188.243
-187.809
-187.296
-186.707
-186.045
-185.313
-184.512
-183.642
-182.704
-181.702
-180.644
-179.542
-178.412
-177.268
-176.125
-174.996
-173.891
-172.817
-171.777
-170.767
-169.783
-168.826
-167.903
-167.04
-166.259
-165.574
-164.992
-164.512
-164.12
-163.789
-163.473
-163.1
-162.598
-161.921
-161.046
-159.976
-158.728
-157.317
-155.741
-153.993
-152.066
-149.951
-147.651
-145.154
-142.47
-139.674
-136.886
-134.293
-132.087
-130.366
-129.184
-128.591
-128.618
-129.29
-130.615
-132.488
-134.807
-137.603
-140.854
-144.473
-148.11
-151.007
-152.552
-152.43
-150.418
-146.425
-140.349
-132.095
-122.794
-114.499
-108.438
-105.444
-103.946
-101.593
-99.062
-95.863
-93.106
-90.564
-80.233
-57.553
-17.372
43.407
115.15
191.993
265.855
327.426
378.094
411.124
421.968
408.498
361.302
286.031
188.575
74.63
-36.876
-138.709
-222.985
-278.559
-311.323
-324.066
-319.442
-306.836
-285.989
-257.347
-225.69
-192.891
-163.203
-140.285
-124.201
-114.518
-110.004
-108.884
-109.363
-109.571
-108.301
-105.071
-100.032
-93.762
-86.764
-79.481
-72.515
-66.497
-61.773
-58.418
-56.247
-54.871
-53.961
-53.279
-52.576
-51.663
-50.427
-48.782
-46.683
-44.147
-41.187
-37.808
-34.038
-29.883
-25.353
-20.487
-15.338
-9.978
-4.488
1.054
6.577
12.031
17.382
22.608
27.692
32.628
37.416
42.062
46.578
50.964
55.216
59.333
63.315
67.171
70.907
74.534
78.061
81.492
84.831
88.076
91.224
94.267
97.195
99.996
102.656
105.164
107.509
109.683
111.68
113.49
115.104
116.514
117.711
118.685
119.428
119.928
120.176
120.161
119.876
119.315
118.473
117.345
115.929
114.225
112.232
109.952
107.389
104.547
101.433
98.052
94.414
90.528
86.405
82.059
77.503
72.752
67.822
62.73
57.495
52.134
46.667
41.114
35.495
29.83
24.141
18.448
12.773
7.138
1.563
-3.932
-9.326
-14.601
-19.738
-24.722
-29.536
-34.168
-38.604
-42.835
-46.852
-50.645
-54.211
-57.543
-60.639
-63.496
-66.115
-68.495
-70.638
-72.549
-74.23
-75.688
-76.929
-77.962
-78.793
-79.433
-79.892
-80.18
-80.308
-80.288
-80.133
-79.854
-79.464
-78.975
-78.399
-77.749
-77.035
-76.269
-75.461
-74.621
-73.757
-72.877
-71.988
-71.098
-70.212
-69.335
-68.473
-67.631
-66.813
-66.022
-65.263
-64.54
-63.855
-63.211
-62.61
-62.055
-61.547
-61.088
-60.68
-60.322
-60.016
-59.761
-59.558
-59.405
-59.3
-59.243
-59.232
-59.266
-59.345
-59.467
-59.631
-59.838
-60.087
-60.378
-60.712
-61.088
-61.504
-61.96
-62.454
-62.984
-63.548
-64.14
-64.755
-65.389
-66.034
-66.685
-67.335
-67.975
-68.598
-69.195
-69.759
-70.283
-70.758
-71.18
-71.542
-71.843
-72.079
-72.247
-72.345
-72.369
-72.316
-72.182
-71.965
-71.657
-71.252
-70.747
-70.139
-69.427
-68.614
-67.7
-66.686
-65.576
-64.38
-63.113
-61.785
-60.401
-58.971
-57.504
-56.021
-54.551
-53.112
-51.706
-50.333
-48.986
-47.659
-46.35
-45.036
-43.674
-42.221
-40.636
-38.902
-37.023
-34.996
-32.803
-30.415
-27.804
-24.983
-22.012
-18.947
-15.854
-12.801
-9.856
-7.147
-4.853
-3.118
-2.061
-1.75
-2.212
-3.489
-5.634
-8.692
-12.69
-17.599
-23.338
-29.84
-36.967
-44.577
-52.572
-60.628
-68.281
-74.982
-79.998
-82.664
-82.554
-79.321
-72.686
-62.825
-50.195
-35.731
-21.053
-7.738
2.893
10.115
14.039
15.553
16.033
17.605
23.351
36.562
60.643
97.788
148.176
210.607
282.688
360.804
440.093
514.646
577.336
621.7
643.35
639.321
608.475
551.716
471.782
373.467
264.03
151.624
43.747
-52.364
-130.78
-187.933
-222.215
-234.062
-226.38
-203.559
-170.381
-132.479
-95.203
-61.989
-34.898
-14.834
-1.313
6.824
10.97
13.346
16.274
20.885
27.582
36.262
46.291
57.101
68.202
78.771
87.942
95.314
100.797
104.576
107.054
108.509
109.168
109.321
109.276
109.336
109.729
110.563
111.865
113.651
115.937
118.755
122.118
125.987
130.297
134.981
139.98
145.252
150.746
156.393
162.114
167.816
173.431
178.924
184.27
189.453
194.465
199.295
203.943
208.434
212.787
217.013
221.122
225.11
228.984
232.753
236.43
240.024
243.539
246.971
250.32
253.586
256.767
259.858
262.846
265.713
268.449
271.043
273.491
275.782
277.907
279.853
281.612
283.183
284.567
285.761
286.756
287.538
288.093
288.416
288.512
288.388
288.046
287.486
286.705
285.709
284.514
283.126
281.546
279.761
277.751
275.512
273.048
270.375
267.513
264.467
261.229
257.756
253.973
249.829
245.319
240.479
235.369
230.007
224.315
218.353
212.402
206.701
201.315
195.965
190.129
183.604
176.79
170.011
162.928
155.287
147.316
140.048
135.413
132.994
129.22
121.972
112.277
107.081
117.421
145.923
183.986
214.371
217.956
189.038
137.777
83.063
42.868
25.051
26.126
36.385
48.169
57.769
64.843
71.851
79.812
87.846
94.881
99.587
101.082
100.127
98.127
95.827
93.742
92.09
90.726
89.84
89.876
90.78
92.145
93.716
95.241
96.667
98.197
99.872
101.597
103.348
105.132
106.968
108.924
111.01
113.169
115.364
117.562
119.744
121.919
124.088
126.244
128.373
130.452
132.462
134.396
136.255
138.046
139.77
141.415
142.968
144.415
145.744
146.956
148.037
148.974
149.772
150.4
150.818
150.977
150.822
150.364
149.653
148.688
147.428
145.874
144.104
142.395
141.039
139.982
139.035
137.968
136.67
135.268
133.602
131.168
127.695
123.575
119.679
115.738
109.69
100.007
87.647
79.571
86.271
111.541
149.425
183.039
192.764
171.394
126.476
76.4
38.884
21.317
20.49
27.095
34.614
40.65
45.452
51.126
58.1
65.465
72.441
77.594
79.561
78.277
74.356
68.877
62.925
56.913
50.917
45.108
39.894
35.54
31.944
28.7
25.399
21.89
18.21
14.467
10.656
6.714
2.655
-1.454
-5.533
-9.556
-13.581
-17.697
-21.963
-26.449
-31.257
-36.516
-42.399
-49.034
-56.473
-64.758
-73.931
-84.058
-95.236
-107.527
-120.926
-135.376
-150.824
-167.263
-184.598
-202.534
-220.523
-237.803
-253.6
-267.371
-278.791
-287.59
-293.814
-297.794
-300.195
-302.279
-305.441
-310.77
-318.714
-328.998
-340.425
-351.366
-359.96
-363.539
-359.083
-343.613
-315.206
-273.798
-221.151
-160.023
-93.509
-25.7
38.298
92.515
131.661
152.572
154.04
136.107
99.08
44.236
-25.348
-104.763
-188.617
-272.544
-353.085
-427.208
-491.375
-542.338
-578.645
-600.718
-610.07
-608.249
-596.785
-577.612
-553.764
-528.705
-504.703
-482.793
-463.235
-446.048
-431.281
-418.703
-407.281
-395.519
-382.626
-368.514
-353.475
-338.015
-322.444
-306.984
-292.147
-278.635
-266.855
-256.885
-248.57
-241.563
-235.607
-230.554
-226.199
-222.268
-218.479
-214.609
-210.538
-206.245
-201.725
-196.949
-191.878
-186.494
-180.829
-174.951
-168.933
-162.837
-156.708
-150.599
-144.57
-138.697
-133.062
-127.721
-122.697
-117.998
-113.621
-109.562
-105.818
-102.371
-99.185
-96.225
-93.462
-90.873
-88.443
-86.152
-83.974
-81.883
-79.856
-77.88
-75.945
-74.043
-72.168
-70.316
-68.487
-66.686
-64.92
-63.195
-61.515
-59.885
-58.31
-56.795
-55.351
-53.985
-52.704
-51.518
-50.44
-49.482
-48.655
-47.972
-47.443
-47.08
-46.891
-46.887
-47.076
-47.463
-48.053
-48.851
-49.858
-51.078
-52.509
-54.148
-55.992
-58.036
-60.273
-62.695
-65.294
-68.057
-70.973
-74.028
-77.208
-80.498
-83.881
-87.338
-90.852
-94.404
-97.974
-101.543
-105.092
-108.599
-112.044
-115.409
-118.675
-121.823
-124.835
-127.695
-130.388
-132.9
-135.219
-137.333
-139.235
-140.915
-142.368
-143.589
-144.574
-145.322
-145.832
-146.106
-146.144
-145.951
-145.532
-144.892
-144.039
-142.983
-141.731
-140.294
-138.682
-136.905
-134.972
-132.897
-130.691
-128.366
-125.935
-123.408
-120.796
-118.112
-115.366
-112.567
-109.722
-106.838
-103.918
-100.972
-98.007
-95.028
-92.045
-89.055
-86.057
-83.054
-80.045
-77.031
-74.014
-70.991
-67.958
-64.921
-61.882
-58.85
-55.832
-52.825
-49.831
-46.841
-43.848
-40.875
-37.937
-35.056
-32.262
-29.541
-26.878
-24.293
-21.786
-19.362
-17.064
-14.821
-12.553
-10.412
-8.488
-6.878
-5.765
-4.998
-4.345
-3.93
-3.81
-3.637
-3.249
-2.323
-0.336
2.35
5.276
8.545
12.037
15.27
18.082
20.033
20.288
18.908
16.399
13.059
9.16
5.475
0.981
-7.219
-17.91
-28.299
-33.672
-24.352
-0.908
26.753
48.966
51.564
32.959
6.581
-17.153
-27.2
-21.106
-8.809
3.426
11.579
14.282
15.527
17.217
19.163
21.472
23.567
25.289
27.183
29.428
31.908
34.612
37.554
40.696
44.007
47.428
50.852
54.237
57.602
60.941
64.232
67.454
70.575
73.561
76.37
78.954
81.282
83.335
85.109
86.623
87.889
88.933
89.806
90.546
91.181
91.733
92.192
92.545
92.807
93.025
93.279
93.679
94.322
95.259
96.493
97.96
99.537
101.062
102.357
103.201
103.366
102.831
101.756
100.478
99.528
99.256
99.772
101.27
103.851
107.12
110.413
112.677
112.365
108.512
100.666
88.204
71.147
50.531
27.904
5.782
-12.399
-23.889
-26.181
-16.224
7.782
46.053
97.811
160.329
229.314
300.517
368.925
427.943
471.835
496.253
497.786
475.731
431.716
368.042
288.582
200.156
110.147
25.437
-46.637
-102.776
-143.886
-168.304
-174.512
-161.371
-124.763
-70.66
-13.27
34.896
59.487
58.624
43.376
23.3
9.255
4.79
4.377
4.849
3.562
0.07
-2.414
-2.849
-1.751
0.225
1.622
1.839
1.225
0.02
-1.459
-2.83
-3.855
-4.342
-4.152
-3.293
-1.861
0.076
2.451
5.203
8.32
11.804
15.667
19.929
24.572
29.543
34.765
40.136
45.568
51.005
56.41
61.763
67.058
72.289
77.459
82.58
87.652
92.657
97.573
102.373
107.035
111.553
115.923
120.144
124.219
128.147
131.927
135.559
139.038
142.358
145.511
148.482
151.26
153.839
156.213
158.376
160.327
162.06
163.573
164.865
165.933
166.774
167.386
167.764
167.904
167.804
167.46
166.872
166.038
164.959
163.636
162.072
160.269
158.231
155.964
153.472
150.76
147.834
144.702
141.369
137.844
134.136
130.254
126.21
122.016
117.686
113.231
108.668
104.01
99.272
94.47
89.62
84.738
79.839
74.941
70.061
65.217
60.425
55.7
51.06
46.52
42.093
37.794
33.634
29.624
25.776
22.098
18.598
15.285
12.162
9.235
6.508
3.981
1.656
-0.467
-2.391
-4.119
-5.656
-7.007
-8.179
-9.18
-10.019
-10.708
-11.256
-11.676
-11.981
-12.183
-12.295
-12.333
-12.311
-12.242
-12.141
-12.023
-11.899
-11.786
-11.699
-11.648
-11.639
-11.678
-11.772
-11.929
-12.163
-12.477
-12.861
-13.327
-13.906
-14.621
-15.499
-16.541
-17.703
-18.978
-20.409
-21.961
-23.532
-25.043
-26.406
-27.609
-28.773
-29.928
-30.935
-31.931
-33.395
-35.416
-37.848
-40.75
-43.586
-47.356
-55.065
-65.988
-77.393
-84.665
-79.226
-61.798
-40.938
-25.247
-26.921
-46.468
-72.411
-95.902
-107.301
-105.144
-98.034
-91.177
-88.21
-90.141
-93.455
-96.616
-99.731
-102.672
-105.978
-109.798
-113.679
-117.502
-121.358
-125.197
-128.969
-132.724
-136.445
-140.051
-143.556
-146.919
-150.054
-153.043
-155.992
-158.798
-161.602
-164.945
-168.914
-173.245
-178.042
-182.906
-188.391
-197.354
-209.634
-222.173
-230.499
-226.338
-207.674
-182.116
-160.578
-156.188
-175.065
-209.886
-245.94
-269.941
-273.859
-259.445
-238.887
-221.15
-211.486
-212.389
-217.603
-222.901
-227.134
-228.139
-227.704
-227.361
-226.569
-225.7
-224.63
-222.949
-220.967
-218.94
-216.846
-214.745
-212.693
-210.641
-208.538
-206.375
-204.079
-201.538
-198.73
-195.608
-191.99
-187.753
-182.826
-177.138
-170.775
-163.901
-156.51
-148.656
-140.788
-133.223
-125.774
-118.249
-110.211
-100.841
-91.549
-83.635
-75.168
-66.106
-53.635
-34.724
-16.054
-2.045
1.905
-11.312
-35.593
-64.645
-93.149
-112.57
-123.249
-126.542
-121.061
-106.929
-81.847
-44.53
3.105
58.132
116.799
175.923
232.27
281.728
320.863
346.988
358.54
355.628
338.214
305.852
259.868
203.157
139.205
72.408
6.643
-55.077
-108.814
-150.603
-178.385
-191.495
-190.667
-178.324
-156.955
-129.276
-99.211
-70.378
-45.14
-25.101
-10.732
-1.455
3.368
4.921
5.159
5.577
7.019
9.907
14.063
19.069
24.623
30.214
35.142
39.012
41.702
43.318
44.229
44.808
45.335
46.046
47.137
48.72
50.86
53.597
56.912
60.772
65.159
70.068
75.501
81.45
87.883
94.719
101.863
109.211
116.654
124.118
131.558
138.934
146.224
153.405
160.463
167.393
174.197
180.859
187.354
193.652
199.729
205.57
211.173
216.529
221.635
226.485
231.068
235.378
239.405
243.133
246.548
249.635
252.376
254.759
256.781
258.436
259.725
260.647
261.205
261.402
261.243
260.736
259.884
258.694
257.171
255.322
253.159
250.69
247.928
244.886
241.578
238.019
234.224
230.211
225.994
221.589
217.013
212.28
207.406
202.406
197.295
192.089
186.805
181.456
176.06
170.631
165.184
159.732
154.289
148.868
143.48
138.136
132.848
127.626
122.48
117.422
112.459
107.601
102.855
98.231
93.733
89.368
85.141
81.058
77.121
73.336
69.706
66.237
62.932
59.793
56.824
54.028
51.407
48.963
46.696
44.6
42.677
40.933
39.37
37.991
36.799
35.778
34.922
34.242
33.722
33.322
33.017
32.766
32.539
32.395
32.372
32.431
32.632
33.094
33.849
34.994
36.592
38.428
40.318
42.33
44.187
45.252
45.517
45.197
44.035
42.838
41.07
34.957
24.953
14.75
9.315
20.899
53.056
93.629
128.406
136.073
104.313
49.186
-7.356
-42.488
-38.417
-6.062
33.514
64.936
74.605
65.57
50.582
35.737
25.751
21.038
17.05
12.585
7.952
2.92
-1.825
-6.125
-10.576
-15.351
-20.4
-25.833
-31.697
-37.907
-44.408
-51.134
-57.965
-64.862
-71.848
-78.903
-85.996
-93.112
-100.227
-107.32
-114.381
-121.388
-128.308
-135.117
-141.789
-148.302
-154.636
-160.772
-166.69
-172.373
-177.805
-182.972
-187.863
-192.467
-196.776
-200.783
-204.485
-207.88
-210.97
-213.759
-216.251
-218.455
-220.38
-222.039
-223.446
-224.614
-225.559
-226.296
-226.844
-227.222
-227.454
-227.562
-227.571
-227.504
-227.384
-227.23
-227.058
-226.881
-226.707
-226.544
-226.399
-226.279
-226.192
-226.151
-226.17
-226.268
-226.456
-226.739
-227.121
-227.604
-228.19
-228.885
-229.692
-230.608
-231.632
-232.757
-233.972
-235.268
-236.616
-237.962
-239.24
-240.36
-241.245
-241.849
-242.113
-241.973
-241.355
-240.155
-238.313
-235.82
-232.667
-228.888
-224.527
-219.581
-214.164
-208.499
-202.689
-196.776
-190.602
-183.706
-175.749
-166.574
-155.946
-143.803
-130.466
-116.464
-103.04
-92.055
-85.009
-83.155
-87.423
-97.674
-112.866
-131.274
-149.716
-164.146
-170.88
-166.137
-146.784
-111.75
-61.375
2.688
76.408
154.429
231.087
299.563
353.195
387.365
398.631
385.047
347.737
289.682
215.13
130.637
43.496
-39.925
-113.343
-171.525
-212.023
-234.092
-238.52
-228.454
-207.885
-180.842
-152.04
-125.533
-103.656
-87.816
-78.327
-74.148
-73.91
-76.01
-78.322
-79.307
-78.208
-74.602
-68.636
-60.864
-51.872
-42.413
-33.37
-25.24
-18.197
-12.278
-7.302
-3.078
0.577
3.941
7.316
10.922
14.867
19.181
23.848
28.883
34.347
40.278
46.689
53.556
60.854
68.564
76.671
85.149
93.933
102.938
112.079
121.27
130.457
139.604
148.673
157.633
166.456
175.119
183.609
191.926
200.063
208.003
215.732
223.233
230.499
237.528
244.317
250.863
257.163
263.205
268.982
274.482
279.69
284.589
289.16
293.381
297.233
300.699
303.763
306.41
308.628
310.401
311.716
312.563
312.929
312.803
312.175
311.037
309.381
307.203
304.5
301.273
297.524
293.259
288.485
283.213
277.454
271.223
264.538
257.417
249.883
241.958
233.667
225.04
216.106
206.897
197.447
187.79
177.963
168.003
157.948
147.836
137.708
127.601
117.554
107.605
97.792
88.151
78.717
69.525
60.604
51.986
43.696
35.76
28.2
21.034
14.279
7.947
2.048
-3.41
-8.423
-12.991
-17.115
-20.799
-24.051
-26.879
-29.296
-31.314
-32.951
-34.223
-35.15
-35.753
-36.052
-36.072
-35.836
-35.367
-34.689
-33.826
-32.802
-31.639
-30.359
-28.984
-27.533
-26.025
-24.478
-22.907
-21.327
-19.751
-18.19
-16.653
-15.147
-13.679
-12.253
-10.874
-9.543
-8.261
-7.03
-5.85
-4.719
-3.636
-2.6
-1.608
-0.659
0.25
1.121
1.956
2.754
3.516
4.242
4.93
5.576
6.179
6.732
7.232
7.672
8.045
8.345
8.563
8.69
8.716
8.631
8.424
8.085
7.603
6.967
6.17
5.202
4.056
2.728
1.211
-0.496
-2.397
-4.492
-6.781
-9.261
-11.93
-14.782
-17.808
-20.999
-24.341
-27.822
-31.424
-35.128
-38.914
-42.761
-46.646
-50.546
-54.437
-58.295
-62.093
-65.804
-69.403
-72.861
-76.153
-79.252
-82.134
-84.773
-87.148
-89.243
-91.042
-92.536
-93.715
-94.572
-95.1
-95.298
-95.163
-94.69
-93.879
-92.726
-91.233
-89.406
-87.256
-84.797
-82.05
-79.037
-75.78
-72.304
-68.632
-64.787
-60.791
-56.665
-52.433
-48.12
-43.761
-39.409
-35.109
-30.899
-26.808
-22.85
-19.029
-15.343
-11.777
-8.303
-4.89
-1.508
1.873
5.263
8.662
12.058
15.453
18.88
22.358
25.893
29.45
32.95
36.316
39.479
42.358
44.849
46.816
48.079
48.459
47.814
46.027
43.079
38.922
33.426
26.648
18.796
10.264
1.735
-6.183
-13.112
-18.698
-22.58
-24.835
-25.762
-25.822
-26.055
-27.405
-30.473
-35.675
-42.902
-50.934
-58.011
-62.529
-62.269
-54.926
-38.432
-10.653
29.55
81.162
141.943
209.803
281.737
353.844
421.573
479.045
520.682
543.147
544.418
522.403
476.268
407.125
318.054
214.884
104.717
-6.221
-112.023
-206.122
-282.677
-338.015
-370.734
-382.131
-375.434
-354.107
-322.075
-284.514
-246.66
-212.216
-183.412
-160.993
-144.431
-133.046
-125.88
-120.994
-116.268
-110.437
-102.934
-93.865
-83.853
-73.362
-62.819
-52.999
-44.707
-38.384
-34.148
-31.711
-30.582
-30.368
-30.736
-31.35
-31.848
-31.93
-31.404
-30.198
-28.319
-25.794
-22.623
-18.767
-14.229
-9.025
-3.185
3.168
9.919
16.967
24.188
31.479
38.738
45.86
52.773
59.455
65.893
72.089
78.047
83.742
89.167
94.315
99.169
103.751
108.08
112.163
116.019
119.665
123.112
126.379
129.481
132.405
135.141
137.679
140.004
142.112
143.999
145.659
147.091
148.292
149.259
149.992
150.489
150.747
150.764
150.536
150.056
149.323
148.338
147.098
145.604
143.856
141.852
139.594
137.082
134.317
131.299
128.029
124.51
120.742
116.732
112.482
107.998
103.287
98.356
93.213
87.866
82.323
76.595
70.691
64.622
58.398
52.031
45.534
38.921
32.205
25.403
18.53
11.604
4.644
-2.331
-9.302
-16.247
-23.148
-29.981
-36.726
-43.362
-49.866
-56.217
-62.394
-68.376
-74.144
-79.679
-84.962
-89.978
-94.711
-99.147
-103.274
-107.08
-110.555
-113.691
-116.48
-118.918
-121.001
-122.726
-124.095
-125.108
-125.771
-126.088
-126.067
-125.719
-125.054
-124.087
-122.832
-121.306
-119.528
-117.519
-115.299
-112.89
-110.317
-107.604
-104.774
-101.853
-98.865
-95.834
-92.786
-89.744
-86.73
-83.768
-80.876
-78.076
-75.387
-72.826
-70.408
-68.15
-66.063
-64.159
-62.449
-60.941
-59.641
-58.553
-57.68
-57.023
-56.581
-56.351
-56.328
-56.506
-56.876
-57.431
-58.159
-59.048
-60.088
-61.263
-62.56
-63.965
-65.462
-67.034
-68.669
-70.349
-72.06
-73.788
-75.521
-77.246
-78.953
-80.63
-82.267
-83.855
-85.387
-86.854
-88.25
-89.568
-90.804
-91.954
-93.015
-93.989
-94.873
-95.671
-96.384
-97.014
-97.566
-98.044
-98.45
-98.791
-99.07
-99.292
-99.466
-99.6
-99.704
-99.789
-99.867
-99.949
-100.044
-100.162
-100.309
-100.488
-100.7
-100.944
-101.218
-101.523
-101.861
-102.235
-102.648
-103.103
-103.605
-104.152
-104.744
-105.377
-106.045
-106.74
-107.456
-108.189
-108.946
-109.75
-110.618
-111.555
-112.557
-113.613
-114.704
-115.804
-116.88
-117.876
-118.732
-119.399
-119.834
-120.014
-119.931
-119.578
-118.921
-117.915
-116.523
-114.753
-112.659
-110.297
-107.725
-105
-102.189
-99.454
-96.997
-94.993
-93.618
-93.003
-93.198
-94.315
-96.53
-99.866
-104.213
-109.266
-114.41
-119.167
-123.236
-126.13
-127.43
-127.024
-124.985
-121.969
-119.2
-117.461
-117.305
-119.58
-124.499
-131.48
-139.44
-146.154
-148.673
-144.743
-132.342
-108.622
-71.396
-20.262
44.279
118.586
195.819
272.378
345.849
413.968
478.567
533.789
568.173
573.43
538.18
462.055
354.522
221.909
78.571
-61.191
-184.658
-273.73
-320.585
-329.829
-313.841
-289.185
-266.776
-247.717
-227.386
-203.726
-177.818
-152.789
-133.422
-120.972
-113.745
-110.334
-108.514
-105.895
-101.688
-95.46
-87.024
-77.157
-66.62
-55.889
-45.713
-36.887
-29.754
-24.466
-20.941
-18.767
-17.613
-17.199
-17.209
-17.353
-17.365
-17.049
-16.283
-15.014
-13.219
-10.87
-7.938
-4.413
-0.319
4.307
9.396
14.878
20.696
26.77
33.018
39.36
45.694
51.949
58.079
64.049
69.837
75.433
80.82
85.993
90.966
95.744
100.339
104.757
108.996
113.063
116.968
120.726
124.35
127.85
131.228
134.485
137.621
140.637
143.529
146.291
148.914
151.392
153.721
155.901
157.93
159.809
161.532
163.098
164.506
165.752
166.832
167.741
168.472
169.019
169.379
169.546
169.517
169.286
168.849
168.203
167.344
166.268
164.973
163.454
161.709
159.734
157.529
155.093
152.427
149.532
146.409
143.062
139.497
135.717
131.73
127.543
123.165
118.606
113.876
108.988
103.956
98.793
93.516
88.14
82.684
77.165
71.6
66.009
60.408
54.817
49.255
43.738
38.286
32.916
27.645
22.492
17.472
12.602
7.896
3.369
-0.965
-5.096
-9.011
-12.703
-16.162
-19.383
-22.361
-25.091
-27.574
-29.808
-31.796
-33.541
-35.048
-36.323
-37.375
-38.21
-38.84
-39.274
-39.523
-39.599
-39.514
-39.28
-38.911
-38.419
-37.818
-37.122
-36.346
-35.503
-34.609
-33.677
-32.721
-31.755
-30.793
-29.847
-28.931
-28.056
-27.234
-26.473
-25.785
-25.177
-24.657
-24.229
-23.898
-23.666
-23.536
-23.508
-23.582
-23.756
-24.028
-24.397
-24.859
-25.413
-26.054
-26.779
-27.582
-28.459
-29.404
-30.41
-31.471
-32.579
-33.726
-34.905
-36.109
-37.33
-38.56
-39.792
-41.016
-42.225
-43.41
-44.563
-45.674
-46.736
-47.741
-48.684
-49.561
-50.369
-51.107
-51.771
-52.363
-52.883
-53.331
-53.707
-54.011
-54.243
-54.404
-54.495
-54.52
-54.483
-54.389
-54.244
-54.059
-53.844
-53.607
-53.353
-53.09
-52.822
-52.553
-52.287
-52.022
-51.761
-51.509
-51.276
-51.071
-50.904
-50.781
-50.706
-50.679
-50.703
-50.776
-50.893
-51.04
-51.207
-51.394
-51.614
-51.894
-52.25
-52.679
-53.173
-53.726
-54.328
-54.968
-55.611
-56.19
-56.64
-56.916
-57.006
-56.928
-56.687
-56.261
-55.618
-54.704
-53.513
-52.081
-50.413
-48.494
-46.301
-43.815
-41.117
-38.41
-35.88
-33.684
-31.928
-30.619
-29.849
-29.792
-30.465
-31.753
-33.322
-34.577
-35.123
-34.791
-33.265
-30.287
-25.919
-20.382
-14.475
-9.596
-6.706
-6.505
-9.896
-17.094
-27.414
-39.537
-50.944
-58.477
-59.76
-52.252
-32.642
1.249
50.168
111.915
180.602
250.634
318.888
386.603
456.632
526.767
587.553
621.133
609.893
547.75
442.638
315.463
188.99
77.653
-14.143
-89.696
-151.574
-199.062
-229.843
-240.923
-233.282
-211.425
-180.192
-145.267
-111.644
-82.075
-58.273
-41.017
-29.691
-23.126
-20.064
-18.569
-16.628
-13.199
-7.851
-0.696
7.627
16.504
25.415
33.643
40.448
45.469
48.629
50.097
50.247
49.412
47.871
45.927
43.899
42.006
40.397
39.187
38.405
38.076
38.241
38.908
40.074
41.735
43.859
46.389
49.277
52.455
55.842
59.367
62.947
66.517
70.043
73.494
76.856
80.128
83.306
86.394
89.408
92.354
95.238
98.066
100.843
103.571
106.261
108.921
111.56
114.183
116.788
119.368
121.914
124.414
126.855
129.22
131.489
133.643
135.668
137.552
139.284
140.85
142.239
143.438
144.436
145.222
145.783
146.107
146.18
145.993
145.535
144.798
143.775
142.459
140.846
138.932
136.714
134.192
131.367
128.238
124.81
121.086
117.072
112.776
108.208
103.378
98.3
92.987
87.455
81.72
75.799
69.712
63.478
57.115
50.645
44.089
37.468
30.804
24.119
17.435
10.775
4.161
-2.385
-8.842
-15.189
-21.405
-27.47
-33.366
-39.074
-44.578
-49.86
-54.906
-59.703
-64.236
-68.496
-72.474
-76.162
-79.554
-82.646
-85.436
-87.924
-90.112
-92.002
-93.6
-94.911
-95.945
-96.709
-97.213
-97.469
-97.489
-97.284
-96.868
-96.254
-95.457
-94.491
-93.372
-92.114
-90.735
-89.249
-87.673
-86.024
-84.319
-82.572
-80.802
-79.022
-77.25
-75.498
-73.783
-72.116
-70.509
-68.975
-67.523
-66.161
-64.896
-63.736
-62.683
-61.742
-60.915
-60.203
-59.606
-59.127
-58.763
-58.514
-58.379
-58.354
-58.439
-58.63
-58.923
-59.311
-59.791
-60.354
-60.996
-61.708
-62.484
-63.313
-64.188
-65.101
-66.043
-67.003
-67.971
-68.938
-69.893
-70.827
-71.73
-72.594
-73.411
-74.173
-74.875
-75.512
-76.08
-76.574
-76.991
-77.325
-77.575
-77.738
-77.811
-77.792
-77.679
-77.47
-77.17
-76.783
-76.314
-75.765
-75.143
-74.455
-73.71
-72.913
-72.07
-71.181
-70.253
-69.294
-68.311
-67.318
-66.322
-65.335
-64.375
-63.458
-62.601
-61.818
-61.113
-60.484
-59.937
-59.48
-59.123
-58.885
-58.774
-58.791
-58.95
-59.254
-59.701
-60.275
-60.93
-61.606
-62.262
-62.858
-63.363
-63.761
-64.018
-64.107
-64.029
-63.763
-63.308
-62.676
-61.852
-60.846
-59.715
-58.532
-57.413
-56.523
-55.979
-55.882
-56.337
-57.417
-59.216
-61.816
-65.245
-69.528
-74.654
-80.599
-87.401
-94.942
-102.879
-110.744
-117.867
-123.509
-127.118
-128.224
-126.345
-121.477
-114.061
-104.856
-95.169
-86.396
-79.634
-75.545
-74.326
-75.18
-76.466
-76.275
-71.684
-59.242
-35.585
2.422
54.546
116.494
183.878
252.07
322.576
404.442
498.334
598.978
688.996
733.931
713.809
620.733
460.047
265.563
66.843
-110.392
-239.726
-319.642
-355.39
-357.821
-350.226
-341.973
-334.197
-324.951
-303.968
-269.883
-228.886
-186.276
-148.792
-119.513
-97.367
-82.153
-74.191
-72.281
-74.605
-79.319
-84.185
-88.088
-91.051
-92.498
-91.399
-87.614
-81.568
-74.109
-66.695
-60.02
-54.002
-48.758
-44.497
-41.244
-38.938
-37.184
-35.184
-32.486
-28.993
-24.652
-19.529
-13.65
-6.959
0.475
8.457
16.844
25.538
34.471
43.64
53.002
62.457
71.926
81.339
90.643
99.821
108.856
117.726
126.416
134.915
143.213
151.301
159.17
166.801
174.174
181.273
188.084
194.601
200.817
206.723
212.305
217.548
222.434
226.943
231.057
234.755
238.019
240.837
243.199
245.097
246.525
247.479
247.956
247.954
247.474
246.514
245.077
243.163
240.78
237.935
234.639
230.904
226.744
222.175
217.215
211.883
206.201
200.192
193.879
187.286
180.438
173.365
166.093
158.651
151.068
143.372
135.594
127.762
119.906
112.054
104.233
96.47
88.79
81.218
73.776
66.485
59.365
52.433
45.707
39.199
32.923
26.888
21.102
15.571
10.298
5.285
0.531
-3.967
-8.214
-12.215
-15.978
-19.511
-22.825
-25.93
-28.841
-31.568
-34.128
-36.532
-38.795
-40.933
-42.959
-44.887
-46.73
-48.5
-50.209
-51.87
-53.492
-55.089
-56.666
-58.229
-59.781
-61.325
-62.864
-64.399
-65.928
-67.448
-68.955
-70.447
-71.925
-73.387
-74.829
-76.238
-77.606
-78.922
-80.183
-81.394
-82.55
-83.643
-84.667
-85.616
-86.497
-87.318
-88.062
-88.722
-89.31
-89.853
-90.388
-90.937
-91.477
-92.008
-92.553
-93.072
-93.445
-93.492
-93.074
-92.19
-90.952
-89.453
-87.627
-85.526
-83.667
-82.592
-82.335
-82.584
-82.601
-83.098
-87.021
-95.832
-107.854
-115.912
-109.862
-86.343
-51.479
-20.849
-11.611
-29.43
-67.132
-108.267
-136.402
-144.882
-137.105
-122.07
-107.808
-98.108
-92.285
-87.339
-82.117
-77.002
-72.913
-71.383
-72.395
-74.59
-77.249
-79.913
-82.217
-84.266
-85.894
-86.583
-86.345
-85.596
-84.593
-83.592
-82.705
-81.779
-80.794
-79.849
-78.947
-78.058
-77.157
-76.202
-75.209
-74.251
-73.369
-72.611
-71.994
-71.487
-71.062
-70.655
-70.188
-69.644
-69.01
-68.206
-67.177
-65.895
-64.309
-62.447
-60.38
-58.052
-55.383
-52.63
-50.116
-47.771
-45.726
-44.188
-42.738
-43.034
-46.674
-51.625
-57.311
-59.848
-54.584
-46.679
-39.56
-38.408
-50.161
-68.266
-86.988
-102.061
-106.798
-104.927
-100.337
-93.486
-86.954
-79.696
-70.585
-61.464
-53.668
-48.34
-46.243
-47.079
-49.771
-52.437
-52.741
-47.649
-33.327
-6.556
33.971
88.669
155.143
227.164
301.041
373.796
442.067
506.844
562.335
597.324
604.264
573.315
504.32
405.265
281.119
143.928
5.712
-117.678
-203.83
-241.427
-229.192
-183.668
-133.178
-97.254
-87.622
-98.576
-113.542
-122.9
-119.878
-106.918
-93.466
-83.126
-77.618
-75.862
-73.231
-68.216
-60.944
-51.547
-41.337
-31.133
-21.17
-12.112
-4.415
1.853
6.665
10.168
12.591
14.074
14.834
15.177
15.356
15.597
16.044
16.764
17.861
19.424
21.506
24.146
27.338
31.044
35.244
39.904
44.966
50.381
56.075
61.962
67.964
73.989
79.965
85.845
91.587
97.16
102.549
107.739
112.729
117.535
122.163
126.616
130.902
135.016
138.964
142.754
146.394
149.893
153.256
156.483
159.57
162.515
165.311
167.948
170.415
172.695
174.777
176.649
178.302
179.731
180.927
181.88
182.582
183.026
183.205
183.111
182.735
182.068
181.102
179.832
178.252
176.359
174.15
171.624
168.779
165.618
162.145
158.363
154.279
149.901
145.237
140.299
135.099
129.652
123.973
118.08
111.991
105.726
99.307
92.755
86.092
79.342
72.529
65.676
58.808
51.949
45.121
38.35
31.66
25.072
18.61
12.295
6.148
0.189
-5.566
-11.098
-16.395
-21.442
-26.229
-30.747
-34.989
-38.948
-42.622
-46.007
-49.104
-51.915
-54.443
-56.694
-58.675
-60.396
-61.867
-63.102
-64.114
-64.918
-65.529
-65.964
-66.239
-66.371
-66.378
-66.276
-66.085
-65.82
-65.5
-65.142
-64.762
-64.377
-64.001
-63.649
-63.332
-63.061
-62.848
-62.701
-62.629
-62.639
-62.739
-62.934
-63.229
-63.628
-64.132
-64.743
-65.458
-66.276
-67.192
-68.201
-69.297
-70.471
-71.716
-73.024
-74.388
-75.799
-77.249
-78.727
-80.225
-81.731
-83.236
-84.73
-86.2
-87.637
-89.032
-90.377
-91.667
-92.896
-94.059
-95.15
-96.167
-97.102
-97.954
-98.718
-99.39
-99.965
-100.442
-100.821
-101.104
-101.298
-101.408
-101.435
-101.385
-101.267
-101.087
-100.859
-100.589
-100.268
-99.904
-99.531
-99.169
-98.847
-98.577
-98.326
-98.099
-97.953
-97.866
-97.741
-97.505
-97.074
-96.434
-95.709
-94.926
-93.94
-92.881
-92.262
-92.266
-92.765
-93.802
-94.869
-96.769
-102.547
-111.778
-121.462
-127.174
-120.232
-100.334
-76.367
-56.802
-53.666
-69.076
-91.591
-111.903
-120.522
-114.957
-103.319
-92.747
-88.256
-89.195
-91.503
-89.648
-79.281
-65.586
-52.665
-45.927
-51.957
-64.328
-77.88
-88.868
-91.082
-88.567
-85.155
-81.464
-80.185
-79.68
-77.746
-74.815
-70.618
-65.655
-61.6
-59.197
-58.48
-59.564
-61.855
-64.074
-65.602
-65.349
-60.648
-49.27
-29.81
-0.739
37.942
84.548
138.573
197.161
253.458
304.096
346.897
381.156
412.706
440.026
453.589
443.896
396.849
307.259
184.271
41.932
-97.471
-211.163
-286.636
-320.078
-319.389
-301.56
-280.756
-264.924
-254.817
-244.941
-231.897
-216.07
-199.88
-187.267
-179.44
-174.918
-171.765
-167.542
-160.902
-151.816
-140.405
-127.105
-112.641
-97.661
-82.947
-69.404
-57.537
-47.528
-39.411
-32.971
-27.961
-24.203
-21.448
-19.436
-17.958
-16.789
-15.696
-14.52
-13.134
-11.436
-9.374
-6.89
-3.944
-0.543
3.272
7.434
11.879
16.555
21.425
26.437
31.529
36.619
41.618
46.462
51.115
55.551
59.757
63.718
67.429
70.904
74.174
77.269
80.208
83.002
85.657
88.185
90.604
92.932
95.185
97.368
99.484
101.537
103.527
105.453
107.31
109.088
110.774
112.359
113.837
115.202
116.448
117.569
118.554
119.398
120.093
120.632
121.006
121.203
121.215
121.033
120.649
120.057
119.249
118.22
116.964
115.478
113.76
111.807
109.62
107.197
104.542
101.658
98.551
95.226
91.691
87.955
84.026
79.917
75.637
71.2
66.619
61.906
57.077
52.147
47.132
42.049
36.914
31.746
26.562
21.381
16.222
11.104
6.044
1.062
-3.824
-8.597
-13.239
-17.735
-22.068
-26.225
-30.193
-33.958
-37.51
-40.841
-43.94
-46.803
-49.422
-51.794
-53.916
-55.785
-57.402
-58.768
-59.885
-60.756
-61.386
-61.781
-61.948
-61.894
-61.631
-61.167
-60.515
-59.687
-58.696
-57.558
-56.288
-54.901
-53.413
-51.842
-50.203
-48.514
-46.791
-45.049
-43.305
-41.574
-39.87
-38.207
-36.598
-35.056
-33.592
-32.215
-30.936
-29.762
-28.701
-27.758
-26.938
-26.247
-25.685
-25.256
-24.96
-24.796
-24.763
-24.857
-25.073
-25.405
-25.846
-26.387
-27.018
-27.73
-28.511
-29.351
-30.24
-31.167
-32.122
-33.096
-34.078
-35.059
-36.031
-36.986
-37.916
-38.814
-39.676
-40.496
-41.271
-41.998
-42.676
-43.305
-43.886
-44.42
-44.91
-45.358
-45.767
-46.142
-46.486
-46.805
-47.104
-47.391
-47.675
-47.967
-48.279
-48.618
-48.993
-49.404
-49.852
-50.333
-50.843
-51.375
-51.923
-52.482
-53.051
-53.642
-54.268
-54.941
-55.668
-56.448
-57.279
-58.165
-59.11
-60.118
-61.184
-62.305
-63.477
-64.712
-66.023
-67.402
-68.807
-70.18
-71.466
-72.629
-73.646
-74.486
-75.066
-75.317
-75.214
-74.682
-73.593
-71.779
-69.097
-65.537
-61.242
-56.347
-50.892
-45.198
-39.922
-35.549
-32.044
-28.807
-24.802
-20.598
-18.665
-19.841
-22.371
-20.207
-5.363
23.527
59.129
87.44
94.755
75.926
36.201
-13.574
-64.232
-108.442
-139.828
-149.836
-127.609
-68.743
21.543
128.006
231.121
317.118
380.849
423.644
448.965
458.926
449.598
415.62
354.818
264.683
153.161
36.934
-69.468
-148.937
-194.874
-215.332
-218.583
-214.853
-208.879
-196.461
-175.826
-147.518
-115.301
-85.61
-61.564
-43.792
-31.744
-23.787
-18.998
-16.393
-14.075
-10.807
-6.097
0.098
7.177
14.581
22.014
29.007
34.932
39.441
42.442
44.067
44.726
44.779
44.485
44.123
43.912
43.982
44.44
45.351
46.717
48.541
50.833
53.575
56.763
60.391
64.426
68.816
73.488
78.356
83.331
88.326
93.287
98.177
102.966
107.635
112.172
116.569
120.831
124.966
128.969
132.833
136.552
140.121
143.546
146.833
149.988
153.02
155.932
158.725
161.401
163.955
166.38
168.67
170.816
172.809
174.643
176.317
177.829
179.181
180.377
181.416
182.303
183.042
183.635
184.085
184.394
184.563
184.597
184.496
184.266
183.909
183.43
182.831
182.115
181.286
180.344
179.293
178.133
176.866
175.49
174.007
172.417
170.72
168.916
167.005
164.987
162.861
160.625
158.278
155.818
153.243
150.549
147.735
144.797
141.733
138.54
135.218
131.764
128.179
124.46
120.61
116.631
112.526
108.3
103.958
99.503
94.943
90.288
85.546
80.729
75.847
70.913
65.94
60.943
55.937
50.94
45.963
41.02
36.122
31.281
26.515
21.843
17.28
12.843
8.544
4.398
0.417
-3.387
-7.007
-10.432
-13.659
-16.687
-19.507
-22.121
-24.518
-26.669
-28.604
-30.365
-31.997
-33.558
-35.04
-36.391
-37.627
-38.801
-39.901
-40.89
-41.632
-41.973
-42.054
-42.098
-42.263
-42.608
-43.081
-43.889
-45.24
-47.061
-49.113
-50.76
-52.521
-56.778
-63.442
-70.42
-73.404
-64.364
-44.037
-20.776
-3.352
-4.069
-23.198
-49.101
-73.141
-85.834
-85.258
-79.616
-73.416
-69.477
-69.33
-70.041
-70.206
-70.264
-70.079
-70.039
-70.562
-71.452
-72.385
-73.294
-74.068
-74.508
-74.7
-74.755
-74.657
-74.453
-74.193
-73.852
-73.462
-73.086
-72.71
-72.32
-71.913
-71.468
-71
-70.536
-70.087
-69.659
-69.25
-68.871
-68.548
-68.321
-68.232
-68.303
-68.524
-68.878
-69.355
-69.949
-70.657
-71.454
-72.289
-73.133
-73.99
-74.892
-75.875
-76.934
-78.002
-78.995
-79.833
-80.474
-80.929
-81.225
-81.386
-81.442
-81.45
-81.513
-81.756
-82.282
-83.123
-84.216
-85.474
-86.86
-88.379
-90.153
-92.364
-94.932
-97.56
-99.938
-101.679
-102.642
-102.937
-102.219
-99.869
-95.9
-90.812
-85.484
-81.249
-78.425
-76.243
-74.575
-73.413
-71.847
-68.696
-61.956
-48.375
-26.201
4.246
43
87.917
134.175
179.393
220.519
255.565
287.478
313.187
325.668
315.637
269.188
183.259
64.768
-69.362
-192.036
-284.19
-334.062
-343.295
-328.352
-301.812
-275.338
-253.687
-231.248
-207.059
-181.209
-154.818
-133.341
-118.844
-110.453
-107.076
-106.097
-104.937
-102.702
-98.984
-93.554
-86.819
-79.26
-71.286
-63.595
-56.988
-51.825
-48.172
-45.953
-44.841
-44.517
-44.78
-45.355
-45.934
-46.331
-46.423
-46.114
-45.407
-44.297
-42.74
-40.723
-38.25
-35.324
-31.98
-28.269
-24.228
-19.913
-15.39
-10.717
-5.965
-1.183
3.6
8.364
13.098
17.801
22.465
27.088
31.678
36.232
40.749
45.23
49.667
54.056
58.398
62.69
66.934
71.125
75.255
79.309
83.272
87.128
90.855
94.435
97.844
101.062
104.071
106.856
109.402
111.698
113.729
115.482
116.948
118.114
118.97
119.505
119.71
119.578
119.103
118.284
117.118
115.608
113.756
111.568
109.05
106.213
103.065
99.62
95.891
91.892
87.64
83.154
78.453
73.557
68.489
63.269
57.921
52.467
46.931
41.334
35.699
30.049
24.405
18.789
13.222
7.724
2.315
-2.984
-8.156
-13.183
-18.048
-22.736
-27.234
-31.529
-35.61
-39.468
-43.094
-46.483
-49.629
-52.528
-55.179
-57.58
-59.731
-61.636
-63.297
-64.718
-65.905
-66.865
-67.606
-68.136
-68.466
-68.604
-68.563
-68.354
-67.989
-67.479
-66.838
-66.079
-65.213
-64.256
-63.22
-62.119
-60.966
-59.775
-58.559
-57.331
-56.104
-54.89
-53.701
-52.546
-51.436
-50.383
-49.393
-48.478
-47.643
-46.897
-46.247
-45.699
-45.257
-44.926
-44.706
-44.599
-44.605
-44.724
-44.953
-45.288
-45.725
-46.261
-46.89
-47.607
-48.405
-49.278
-50.215
-51.209
-52.25
-53.326
-54.427
-55.541
-56.655
-57.759
-58.843
-59.897
-60.913
-61.878
-62.785
-63.624
-64.387
-65.065
-65.647
-66.126
-66.495
-66.749
-66.885
-66.902
-66.8
-66.584
-66.26
-65.836
-65.319
-64.715
-64.03
-63.27
-62.44
-61.544
-60.585
-59.567
-58.502
-57.401
-56.281
-55.156
-54.037
-52.936
-51.86
-50.818
-49.817
-48.858
-47.935
-47.05
-46.214
-45.454
-44.809
-44.305
-43.948
-43.739
-43.68
-43.769
-43.996
-44.325
-44.686
-45.015
-45.273
-45.45
-45.571
-45.636
-45.615
-45.47
-45.139
-44.609
-43.911
-43.04
-41.968
-40.67
-39.126
-37.422
-35.773
-34.364
-33.351
-32.833
-32.789
-33.316
-34.608
-36.675
-39.401
-42.399
-44.987
-46.687
-47.29
-46.476
-44.006
-39.962
-34.576
-28.892
-24.657
-23.262
-25.856
-33.267
-45.337
-61.121
-78.996
-95.779
-107.539
-110.685
-101.127
-75.759
-33.795
24.618
96.059
174.725
256.647
335.998
408.916
472.725
518.028
538.443
527.363
479.195
402.809
307.809
204.309
105.234
12.944
-70.64
-140.588
-195.415
-232.098
-249.103
-249.182
-235.629
-211.904
-182.103
-150.583
-121.185
-96.488
-77.694
-64.574
-56.215
-51.848
-50.455
-50.385
-49.929
-48.006
-44.246
-38.974
-32.835
-26.3
-19.759
-13.726
-8.757
-5.161
-2.974
-1.989
-1.812
-2.096
-2.587
-3.039
-3.258
-3.127
-2.555
-1.481
0.095
2.173
4.758
7.826
11.375
15.404
19.875
24.736
29.911
35.31
40.846
46.442
52.038
57.596
63.084
68.476
73.759
78.926
83.975
88.911
93.725
98.404
102.938
107.32
111.549
115.625
119.549
123.323
126.947
130.416
133.722
136.856
139.803
142.548
145.075
147.363
149.399
151.168
152.66
153.869
154.785
155.401
155.712
155.714
155.403
154.776
153.83
152.563
150.976
149.071
146.851
144.323
141.495
138.375
134.974
131.304
127.377
123.208
118.812
114.204
109.399
104.416
99.27
93.982
88.571
83.057
77.459
71.799
66.097
60.374
54.65
48.944
43.276
37.664
32.126
26.677
21.334
16.111
11.022
6.08
1.295
-3.323
-7.764
-12.021
-16.089
-19.961
-23.635
-27.108
-30.378
-33.446
-36.311
-38.975
-41.439
-43.707
-45.782
-47.668
-49.369
-50.893
-52.243
-53.427
-54.453
-55.327
-56.058
-56.654
-57.122
-57.47
-57.707
-57.84
-57.876
-57.821
-57.682
-57.465
-57.177
-56.823
-56.408
-55.939
-55.42
-54.858
-54.258
-53.625
-52.965
-52.284
-51.587
-50.879
-50.167
-49.457
-48.752
-48.06
-47.386
-46.735
-46.112
-45.522
-44.968
-44.454
-43.985
-43.563
-43.191
-42.872
-42.609
-42.405
-42.261
-42.182
-42.168
-42.221
-42.344
-42.537
-42.799
-43.132
-43.532
-43.996
-44.521
-45.103
-45.735
-46.411
-47.125
-47.87
-48.636
-49.418
-50.208
-50.999
-51.783
-52.553
-53.304
-54.028
-54.722
-55.379
-55.997
-56.571
-57.099
-57.579
-58.007
-58.384
-58.707
-58.977
-59.195
-59.363
-59.482
-59.553
-59.582
-59.571
-59.526
-59.454
-59.362
-59.258
-59.152
-59.055
-58.981
-58.938
-58.933
-58.969
-59.045
-59.163
-59.322
-59.518
-59.749
-60.012
-60.31
-60.656
-61.059
-61.529
-62.07
-62.677
-63.348
-64.086
-64.893
-65.768
-66.711
-67.719
-68.789
-69.924
-71.116
-72.343
-73.564
-74.709
-75.706
-76.485
-76.99
-77.182
-77.022
-76.47
-75.488
-74.04
-72.104
-69.681
-66.806
-63.52
-59.887
-55.972
-51.885
-47.84
-43.947
-40.172
-36.327
-32.008
-26.799
-20.477
-12.917
-3.98
6.036
16.431
26.212
33.819
37.719
36.962
31.216
20.739
6.836
-8.362
-22.343
-31.522
-31.846
-19.926
6.452
46.661
97.051
153.543
213.195
276.8
346.826
420.686
488.889
533.365
535.238
486.891
395.085
280.146
164.179
61.072
-25.39
-99.756
-164.74
-218.618
-258.19
-279.594
-282.768
-271.119
-248.15
-217.31
-181.959
-145.422
-110.618
-79.717
-54.037
-33.853
-19.015
-9.784
-6.259
-7.414
-12.085
-18.982
-26.443
-33.668
-40.369
-45.723
-48.845
-49.566
-47.918
-44.456
-40.367
-36.158
-31.888
-27.829
-24.256
-21.328
-19.167
-17.505
-15.705
-13.452
-10.671
-7.338
-3.543
0.7
5.429
10.556
15.897
21.307
26.675
31.94
37.13
42.249
47.276
52.19
56.968
61.601
66.104
70.496
74.779
78.946
82.99
86.905
90.699
94.379
97.955
101.433
104.812
108.092
111.278
114.375
117.388
120.32
123.167
125.921
128.577
131.133
133.59
135.946
138.198
140.342
142.375
144.293
146.092
147.766
149.304
150.697
151.934
153.005
153.901
154.614
155.133
155.451
155.559
155.45
155.115
154.548
153.741
152.686
151.378
149.811
147.979
145.88
143.512
140.874
137.968
134.796
131.361
127.669
123.728
119.546
115.133
110.501
105.663
100.634
95.432
90.073
84.578
78.966
73.259
67.478
61.645
55.782
49.913
44.058
38.241
32.483
26.806
21.232
15.779
10.469
5.321
0.35
-4.425
-8.99
-13.332
-17.439
-21.301
-24.908
-28.256
-31.338
-34.153
-36.699
-38.977
-40.991
-42.745
-44.245
-45.499
-46.516
-47.305
-47.88
-48.25
-48.43
-48.433
-48.274
-47.967
-47.527
-46.971
-46.313
-45.57
-44.756
-43.887
-42.977
-42.04
-41.09
-40.141
-39.203
-38.29
-37.411
-36.578
-35.799
-35.082
-34.435
-33.863
-33.37
-32.96
-32.634
-32.396
-32.244
-32.18
-32.204
-32.315
-32.513
-32.797
-33.163
-33.61
-34.135
-34.733
-35.4
-36.133
-36.924
-37.771
-38.668
-39.61
-40.596
-41.618
-42.675
-43.76
-44.869
-45.996
-47.137
-48.284
-49.432
-50.575
-51.708
-52.828
-53.933
-55.019
-56.084
-57.126
-58.144
-59.133
-60.091
-61.015
-61.899
-62.74
-63.535
-64.283
-64.983
-65.637
-66.245
-66.815
-67.351
-67.856
-68.332
-68.782
-69.206
-69.606
-69.978
-70.318
-70.627
-70.906
-71.165
-71.412
-71.658
-71.909
-72.173
-72.454
-72.756
-73.081
-73.425
-73.778
-74.133
-74.493
-74.874
-75.306
-75.813
-76.4
-77.063
-77.797
-78.595
-79.444
-80.311
-81.134
-81.849
-82.417
-82.825
-83.088
-83.223
-83.224
-83.062
-82.7
-82.116
-81.319
-80.332
-79.148
-77.76
-76.178
-74.45
-72.729
-71.203
-70.012
-69.263
-69.014
-69.26
-70.057
-71.53
-73.634
-76.192
-78.866
-81.115
-82.53
-82.932
-82.144
-79.951
-76.403
-71.744
-66.623
-62.308
-59.886
-60.047
-63.082
-68.716
-75.94
-83.382
-89.193
-90.527
-84.705
-69.491
-42.872
-4.017
46.117
106.066
172.345
238.253
299.655
353.565
398.134
436.83
467.595
482.535
473.889
430.187
347.045
231.695
96.511
-38.217
-150.673
-227.133
-262.552
-264.023
-247.87
-227.696
-211.316
-199.135
-185.366
-167.736
-147.558
-127.421
-111.629
-101.626
-96.043
-93.711
-92.809
-91.31
-88.476
-83.901
-77.353
-69.422
-60.745
-51.707
-42.932
-35.091
-28.495
-23.307
-19.518
-16.815
-14.904
-13.536
-12.41
-11.258
-9.913
-8.264
-6.251
-3.854
-1.052
2.17
5.81
9.846
14.253
19.005
24.062
29.364
34.836
40.385
45.916
51.342
56.599
61.643
66.443
70.976
75.231
79.204
82.901
86.336
89.519
92.452
95.143
97.601
99.839
101.877
103.737
105.44
107.006
108.45
109.787
111.025
112.171
113.231
114.206
115.093
115.894
116.61
117.245
117.801
118.281
118.684
119.011
119.26
119.428
119.51
119.499
119.386
119.163
118.821
118.35
117.742
116.988
116.079
115.007
113.762
112.336
110.723
108.914
106.903
104.684
102.25
99.598
96.726
93.633
90.318
86.785
83.036
79.077
74.914
70.555
66.011
61.29
56.406
51.372
46.203
40.916
35.528
30.058
24.526
18.952
13.359
7.767
2.198
-3.325
-8.781
-14.149
-19.409
-24.539
-29.521
-34.336
-38.967
-43.397
-47.611
-51.596
-55.341
-58.834
-62.067
-65.034
-67.729
-70.149
-72.293
-74.161
-75.755
-77.079
-78.138
-78.939
-79.49
-79.801
-79.883
-79.747
-79.406
-78.874
-78.165
-77.294
-76.277
-75.13
-73.869
-72.511
-71.072
-69.569
-68.017
-66.433
-64.83
-63.224
-61.626
-60.051
-58.509
-57.013
-55.572
-54.197
-52.895
-51.676
-50.545
-49.508
-48.568
-47.728
-46.991
-46.356
-45.823
-45.389
-45.053
-44.811
-44.663
-44.604
-44.63
-44.736
-44.916
-45.166
-45.477
-45.843
-46.256
-46.707
-47.188
-47.694
-48.218
-48.757
-49.305
-49.856
-50.404
-50.946
-51.475
-51.985
-52.469
-52.92
-53.332
-53.703
-54.028
-54.307
-54.541
-54.731
-54.882
-54.999
-55.084
-55.138
-55.163
-55.157
-55.119
-55.047
-54.938
-54.791
-54.605
-54.387
-54.141
-53.872
-53.581
-53.269
-52.937
-52.586
-52.216
-51.824
-51.4
-50.945
-50.468
-49.991
-49.547
-49.153
-48.815
-48.537
-48.324
-48.176
-48.082
-48
-47.855
-47.575
-47.111
-46.447
-45.596
-44.544
-43.267
-41.73
-39.896
-37.79
-35.443
-32.86
-30.006
-26.848
-23.412
-19.848
-16.419
-13.385
-10.945
-9.191
-8.206
-8.179
-9.153
-11.033
-13.537
-16.11
-18.258
-19.757
-20.502
-20.374
-19.598
-18.558
-17.759
-18.23
-20.917
-26.461
-35.166
-46.733
-59.949
-73.031
-83.996
-90.369
-89.499
-78.474
-54.715
-16.932
33.054
90.617
151.59
213.098
276.379
344.673
415.887
480.518
522.567
525.405
480.216
393.8
282.626
164.116
57.133
-31.18
-99.856
-144.967
-172.215
-184.839
-183.623
-175.575
-160.837
-139.585
-115.976
-91.531
-69.869
-54.349
-45.076
-41.341
-41.628
-43.994
-46.624
-48.136
-47.724
-44.926
-39.84
-33.042
-25.131
-16.836
-9.031
-2.189
3.528
8.06
11.594
14.387
16.645
18.694
20.882
23.369
26.215
29.428
32.948
36.777
40.973
45.537
50.457
55.722
61.305
67.198
73.4
79.856
86.48
93.17
99.816
106.351
112.741
118.954
124.965
130.752
136.291
141.582
146.633
151.44
155.995
160.285
164.294
168.022
171.477
174.669
177.607
180.302
182.759
184.987
186.991
188.775
190.338
191.677
192.785
193.658
194.297
194.703
194.876
194.819
194.535
194.027
193.299
192.356
191.198
189.827
188.243
186.447
184.441
182.225
179.803
177.176
174.348
171.324
168.107
164.703
161.116
157.35
153.41
149.3
145.024
140.586
135.989
131.241
126.347
121.313
116.148
110.86
105.458
99.95
94.347
88.659
82.896
77.069
71.188
65.265
59.313
53.346
47.375
41.416
35.482
29.586
23.743
17.965
12.264
6.653
1.143
-4.255
-9.529
-14.67
-19.667
-24.509
-29.187
-33.692
-38.014
-42.146
-46.08
-49.811
-53.333
-56.642
-59.734
-62.607
-65.26
-67.692
-69.904
-71.898
-73.676
-75.243
-76.605
-77.768
-78.739
-79.526
-80.139
-80.587
-80.879
-81.026
-81.038
-80.925
-80.697
-80.366
-79.942
-79.437
-78.863
-78.23
-77.552
-76.841
-76.109
-75.367
-74.628
-73.902
-73.201
-72.535
-71.916
-71.351
-70.852
-70.425
-70.077
-69.816
-69.647
-69.573
-69.595
-69.715
-69.935
-70.253
-70.67
-71.183
-71.789
-72.488
-73.275
-74.149
-75.105
-76.138
-77.241
-78.409
-79.636
-80.912
-82.229
-83.578
-84.948
-86.329
-87.711
-89.085
-90.44
-91.764
-93.046
-94.277
-95.447
-96.546
-97.566
-98.499
-99.338
-100.083
-100.732
-101.284
-101.738
-102.094
-102.352
-102.515
-102.58
-102.544
-102.404
-102.159
-101.809
-101.361
-100.82
-100.191
-99.485
-98.714
-97.895
-97.041
-96.163
-95.263
-94.347
-93.427
-92.524
-91.665
-90.869
-90.138
-89.48
-88.902
-88.403
-87.978
-87.592
-87.186
-86.717
-86.164
-85.519
-84.794
-83.983
-83.056
-81.993
-80.78
-79.434
-77.998
-76.501
-74.96
-73.418
-71.966
-70.754
-69.962
-69.712
-70.048
-70.977
-72.504
-74.698
-77.666
-81.487
-86.198
-91.751
-98.091
-105.233
-113.078
-121.358
-129.595
-137.052
-143.002
-147.02
-148.847
-148.278
-145.541
-141.048
-135.355
-129.627
-124.951
-121.995
-121.238
-122.629
-125.03
-126.923
-126.87
-122.617
-112.076
-93.68
-65.396
-25.915
23.781
82.066
145.994
209.515
269.322
323.911
372.292
418.235
458.864
483.706
482.534
442.61
363.979
261.824
150.93
47.591
-40.574
-117.773
-184.387
-239.737
-282.612
-308.232
-316.165
-309.627
-291.1
-263.962
-232.245
-198.918
-166.783
-138.633
-115.361
-96.579
-82.275
-72.17
-65.483
-61.749
-59.934
-58.33
-56.289
-53.886
-51
-47.731
-44.071
-39.547
-34.368
-29.463
-25.233
-21.738
-18.951
-16.526
-14.343
-12.693
-11.494
-10.28
-8.769
-6.727
-4.061
-0.942
2.572
6.567
11.022
15.844
20.943
26.167
31.409
36.642
41.8
46.834
51.709
56.37
60.789
64.966
68.895
72.588
76.062
79.32
82.363
85.198
87.826
90.259
92.511
94.593
96.517
98.294
99.931
101.44
102.83
104.107
105.272
106.324
107.257
108.07
108.766
109.347
109.819
110.182
110.439
110.593
110.647
110.603
110.461
110.218
109.87
109.413
108.845
108.163
107.363
106.441
105.394
104.218
102.91
101.466
99.882
98.152
96.271
94.235
92.04
89.682
87.156
84.458
81.587
78.541
75.321
71.929
68.366
64.634
60.738
56.686
52.485
48.147
43.68
39.093
34.397
29.602
24.724
19.778
14.779
9.743
4.689
-0.364
-5.392
-10.371
-15.279
-20.099
-24.818
-29.425
-33.903
-38.23
-42.373
-46.304
-49.997
-53.428
-56.577
-59.42
-61.935
-64.105
-65.933
-67.433
-68.618
-69.502
-70.069
-70.283
-70.157
-69.756
-69.172
-68.504
-67.784
-66.954
-65.993
-64.973
-63.915
-62.775
-61.439
-59.666
-57.413
-54.989
-52.797
-51.061
-50.011
-49.901
-50.493
-51.563
-53.09
-54.045
-54.746
-57.736
-61.798
-64.255
-60.71
-41.521
-7.95
28.863
57.33
61.032
38.237
3.511
-30.932
-52.245
-57.561
-56.661
-55.08
-55.888
-59.685
-62.552
-63.546
-63.678
-63.244
-63.006
-63.239
-63.728
-64.454
-65.308
-65.815
-65.582
-64.607
-63.036
-61.074
-58.858
-56.384
-53.65
-50.782
-47.904
-45.057
-42.265
-39.519
-36.869
-34.486
-32.48
-30.889
-29.686
-28.748
-27.991
-27.381
-26.871
-26.412
-25.972
-25.517
-25.049
-24.623
-24.258
-23.956
-23.696
-23.417
-23.088
-22.717
-22.325
-21.957
-21.649
-21.422
-21.313
-21.374
-21.633
-22.102
-22.772
-23.607
-24.575
-25.652
-26.799
-27.955
-29.062
-30.062
-30.901
-31.564
-32.045
-32.33
-32.4
-32.23
-31.809
-31.158
-30.316
-29.301
-28.148
-26.89
-25.604
-24.469
-23.651
-23.294
-23.512
-24.305
-25.644
-27.546
-30.024
-33.077
-36.699
-40.754
-45.085
-49.703
-54.499
-59.264
-63.648
-66.844
-68.02
-66.767
-62.777
-55.829
-46.246
-34.378
-20.827
-7.339
4.349
13.412
19.328
22.369
23.927
25.096
27.634
35.391
52.319
81.57
123.168
172.851
226.498
280.936
339.958
413.34
500.8
595.585
678.292
714.024
685.302
587.957
429.52
244.36
60.534
-101.64
-218.726
-287.23
-311.42
-296.886
-262.73
-226.409
-195.419
-174.85
-162.601
-149.454
-133.159
-113.793
-90.772
-69.912
-53.986
-42.918
-37.841
-36.262
-35.567
-34.547
-32.195
-28.892
-25.14
-20.783
-15.507
-9.021
-1.816
4.835
10.106
13.935
16.546
17.836
17.545
15.956
13.731
12.326
12.196
11.005
8.467
6.65
10.126
26.889
57.078
93.83
126.223
138.656
126.789
95.016
53.435
20.972
8.136
18.296
47.982
82.291
110.223
125.442
127.309
123.676
120.128
119.653
122.715
126.302
129.55
132.882
136.243
140.445
145.37
149.343
153.794
160.512
167.051
173.249
173.823
160.264
138.832
116.591
104.181
118.958
154.016
193.72
224.452
225.945
201.305
168.39
138.462
125.221
129.421
139.121
148.545
153.395
152.359
149.847
147.505
144.944
142.407
139.334
135.521
131.527
127.551
123.513
119.478
115.53
111.638
107.767
103.884
99.904
95.804
91.641
87.434
83.177
78.883
74.556
70.204
65.847
61.492
57.137
52.781
48.427
44.074
39.728
35.39
31.064
26.749
22.443
18.144
13.851
9.565
5.285
1.009
-3.266
-7.54
-11.811
-16.074
-20.32
-24.547
-28.755
-32.943
-37.113
-41.258
-45.363
-49.417
-53.414
-57.346
-61.208
-64.986
-68.661
-72.226
-75.676
-79.013
-82.245
-85.365
-88.357
-91.206
-93.885
-96.391
-98.743
-100.976
-103.137
-105.228
-107.209
-109.055
-110.741
-112.295
-113.794
-115.131
-116.082
-116.649
-116.994
-117.379
-118.197
-119.38
-120.384
-121.235
-122.294
-123.238
-123.697
-123.033
-119.737
-115.11
-111.444
-107.55
-103.248
-95.345
-79.963
-62.974
-49.108
-43.634
-52.301
-68.075
-85.05
-99.339
-105.065
-105.292
-102.744
-97.567
-92.42
-87.086
-80.863
-74.555
-68.149
-62.144
-57.475
-54.536
-53.379
-53.373
-53.837
-54.486
-55.157
-55.895
-56.705
-57.318
-57.539
-57.554
-57.551
-57.631
-57.894
-58.226
-58.509
-58.782
-59.082
-59.391
-59.702
-59.98
-60.175
-60.313
-60.416
-60.483
-60.529
-60.538
-60.492
-60.392
-60.239
-60.034
-59.79
-59.511
-59.192
-58.832
-58.427
-57.972
-57.474
-56.932
-56.339
-55.694
-55
-54.272
-53.545
-52.844
-52.18
-51.561
-50.988
-50.457
-49.967
-49.506
-49.023
-48.473
-47.804
-46.966
-45.957
-44.776
-43.401
-41.802
-39.942
-37.802
-35.414
-32.825
-30.024
-26.994
-23.755
-20.367
-16.994
-13.852
-11.126
-8.968
-7.58
-7.167
-7.772
-9.397
-11.902
-14.845
-17.823
-20.561
-22.557
-23.346
-23.129
-22.112
-20.54
-19.721
-20.748
-23.788
-30.133
-39.415
-47.631
-54.178
-59.593
-64.762
-77.726
-97.442
-110.588
-105.143
-63.355
19.134
122.347
228.913
319.719
383.745
432.503
471.956
505.09
534.985
551.937
550.337
529.105
484.649
419.834
339.713
247.965
150.144
50.932
-46.267
-136.601
-214.176
-274.55
-315.643
-337.591
-342.429
-332.583
-310.494
-279.65
-244.87
-210.782
-180.487
-155.447
-135.773
-121.169
-111.239
-105.092
-101.075
-97.283
-92.551
-86.532
-79.454
-71.818
-64.035
-56.48
-49.717
-44.378
-40.732
-38.732
-38.115
-38.417
-39.263
-40.355
-41.336
-41.909
-41.89
-41.168
-39.723
-37.598
-34.798
-31.33
-27.241
-22.573
-17.392
-11.776
-5.79
0.478
6.927
13.449
19.933
26.296
32.497
38.501
44.294
49.867
55.214
60.338
65.258
69.984
74.521
78.873
83.036
87.019
90.836
94.503
98.033
101.435
104.711
107.862
110.889
113.788
116.554
119.177
121.646
123.951
126.091
128.062
129.863
131.49
132.939
134.206
135.291
136.188
136.891
137.395
137.69
137.77
137.63
137.262
136.662
135.822
134.737
133.401
131.811
129.961
127.848
125.465
122.81
119.879
116.67
113.182
109.414
105.367
101.042
96.442
91.572
86.438
81.047
75.405
69.522
63.408
57.075
50.535
43.803
36.892
29.821
22.608
15.272
7.834
0.316
-7.26
-14.869
-22.488
-30.093
-37.658
-45.159
-52.57
-59.866
-67.023
-74.014
-80.817
-87.406
-93.758
-99.853
-105.669
-111.189
-116.394
-121.27
-125.804
-129.985
-133.803
-137.251
-140.325
-143.02
-145.337
-147.276
-148.841
-150.037
-150.874
-151.36
-151.51
-151.338
-150.861
-150.096
-149.064
-147.787
-146.287
-144.589
-142.717
-140.698
-138.56
-136.33
-134.036
-131.707
-129.371
-127.056
-124.787
-122.591
-120.49
-118.508
-116.663
-114.976
-113.461
-112.135
-111.01
-110.096
-109.401
-108.931
-108.689
-108.675
-108.885
-109.314
-109.953
-110.791
-111.815
-113.009
-114.356
-115.837
-117.431
-119.115
-120.865
-122.655
-124.457
-126.242
-127.98
-129.642
-131.196
-132.612
-133.861
-134.915
-135.746
-136.332
-136.647
-136.671
-136.381
-135.76
-134.792
-133.463
-131.762
-129.678
-127.207
-124.346
-121.102
-117.483
-113.502
-109.171
-104.507
-99.532
-94.266
-88.731
-82.947
-76.932
-70.711
-64.311
-57.762
-51.099
-44.356
-37.568
-30.777
-24.02
-17.333
-10.752
-4.306
1.982
8.078
13.952
19.566
24.869
29.819
34.386
38.538
42.264
45.56
48.432
50.91
53.04
54.857
56.405
57.722
58.832
59.778
60.586
61.274
61.895
62.483
63.057
63.621
64.124
64.485
64.637
64.489
63.933
62.861
61.106
58.512
54.942
50.254
44.411
37.349
28.917
19.153
8.248
-3.431
-15.195
-26.442
-36.824
-45.81
-52.869
-57.943
-61.171
-63.186
-65.207
-67.925
-71.72
-77.3
-84.85
-93.682
-102.528
-109.055
-110.405
-104.747
-90.203
-64.061
-24.415
29.726
96.085
168.344
240.921
309.6
376.082
447.611
524.028
599.996
660.637
679.005
641.657
546.064
399.01
229.105
60.53
-88.647
-197.614
-262.401
-286.891
-276.928
-249.807
-221.466
-198.623
-185.667
-181.069
-176.672
-169.888
-159.384
-143.308
-126.505
-111.134
-96.971
-84.993
-72.165
-56.614
-39.381
-20.735
-1.536
16.958
34.908
50.961
61.338
66.092
67.702
70.357
82.518
104.138
127.007
143.186
141.396
121.015
93.675
68.394
54.631
54.459
59.687
65.211
67.702
66.08
63.811
62.612
62.422
63.412
65.061
67.128
69.909
73.322
77.07
80.99
84.984
88.958
92.845
96.576
100.05
103.248
106.199
108.878
111.241
113.252
114.889
116.174
117.166
117.94
118.558
119.073
119.524
119.931
120.304
120.638
120.922
121.127
121.232
121.234
121.129
120.919
120.614
120.22
119.708
119.054
118.238
117.228
116.029
114.665
113.101
111.306
109.355
107.311
105.224
103.169
101.097
98.903
96.66
94.483
92.103
89.22
85.969
82.297
78.203
74.346
69.16
61.084
52.47
44.221
40.119
44.877
53.364
61.604
65.878
60.507
49.782
38.418
26.428
15.484
6.108
-2.836
-7.536
-4.082
3.273
11.598
17.151
14.621
7.859
0.498
-6.3
-9.865
-11.694
-13.638
-15.323
-16.991
-18.537
-19.602
-20.47
-21.387
-22.275
-23.107
-23.918
-24.708
-25.467
-26.197
-26.862
-27.419
-27.893
-28.305
-28.655
-28.947
-29.184
-29.366
-29.5
-29.594
-29.648
-29.66
-29.634
-29.568
-29.464
-29.323
-29.146
-28.932
-28.682
-28.394
-28.069
-27.707
-27.308
-26.87
-26.395
-25.881
-25.329
-24.739
-24.111
-23.446
-22.744
-22.007
-21.237
-20.436
-19.607
-18.754
-17.88
-16.989
-16.086
-15.176
-14.261
-13.347
-12.435
-11.531
-10.636
-9.756
-8.894
-8.054
-7.241
-6.458
-5.712
-5.005
-4.342
-3.726
-3.16
-2.647
-2.189
-1.79
-1.454
-1.183
-0.981
-0.853
-0.804
-0.839
-0.962
-1.176
-1.481
-1.877
-2.362
-2.93
-3.578
-4.297
-5.084
-5.936
-6.852
-7.836
-8.893
-10.03
-11.252
-12.557
-13.939
-15.389
-16.893
-18.438
-20.012
-21.605
-23.217
-24.858
-26.539
-28.268
-30.044
-31.849
-33.647
-35.381
-36.999
-38.451
-39.702
-40.74
-41.565
-42.194
-42.66
-43.01
-43.26
-43.396
-43.378
-43.146
-42.672
-41.953
-41.04
-40.033
-39.027
-38.137
-37.435
-36.949
-36.694
-36.664
-36.821
-37.1
-37.442
-37.774
-38.148
-38.748
-39.605
-40.616
-41.387
-41.192
-39.594
-36.51
-31.914
-25.792
-18.231
-9.489
-0.629
6.411
10.374
11.082
9.194
5.939
2.219
-1.053
-1.855
3.107
16.735
40.375
73.481
114.191
160.966
212.007
264.232
312.877
352.387
378.348
388.387
381.695
357.805
317.142
261.544
194.869
122.737
50.557
-17.242
-77.299
-126.955
-164.461
-189.234
-202.341
-206.36
-204.181
-198.689
-192.176
-186.359
-182.53
-181.286
-182.39
-184.927
-187.606
-188.897
-187.757
-183.576
-175.927
-164.797
-150.446
-133.298
-114.099
-93.777
-72.924
-51.929
-31.102
-10.533
9.661
29.326
48.455
67.039
84.928
101.988
118.062
132.942
146.538
158.753
169.463
178.639
186.246
192.252
196.711
199.646
201.073
201.077
199.749
197.229
193.76
189.527
184.653
179.294
173.556
167.581
161.57
155.646
149.885
144.368
139.126
134.202
129.66
125.486
121.622
117.985
114.433
110.876
107.289
103.628
99.872
95.988
91.912
87.628
83.16
78.522
73.735
68.818
63.771
58.636
53.49
48.409
43.485
38.784
34.336
30.171
26.312
22.772
19.562
16.677
14.087
11.772
9.714
7.898
6.311
4.928
3.71
2.621
1.623
0.681
-0.235
-1.153
-2.105
-3.113
-4.196
-5.371
-6.647
-8.037
-9.558
-11.221
-13.041
-15.027
-17.187
-19.526
-22.049
-24.756
-27.642
-30.701
-33.921
-37.29
-40.794
-44.417
-48.139
-51.941
-55.8
-59.694
-63.599
-67.49
-71.34
-75.124
-78.816
-82.39
-85.822
-89.087
-92.162
-95.026
-97.66
-100.045
-102.166
-104.007
-105.556
-106.802
-107.738
-108.359
-108.661
-108.644
-108.31
-107.666
-106.72
-105.485
-103.975
-102.206
-100.199
-97.975
-95.558
-92.972
-90.244
-87.401
-84.471
-81.482
-78.463
-75.44
-72.443
-69.497
-66.629
-63.863
-61.222
-58.728
-56.4
-54.257
-52.314
-50.586
-49.083
-47.815
-46.788
-46.006
-45.47
-45.178
-45.125
-45.304
-45.703
-46.31
-47.108
-48.077
-49.197
-50.442
-51.788
-53.206
-54.668
-56.146
-57.609
-59.028
-60.375
-61.623
-62.747
-63.722
-64.526
-65.139
-65.542
-65.72
-65.66
-65.351
-64.784
-63.954
-62.858
-61.497
-59.874
-57.994
-55.869
-53.511
-50.936
-48.163
-45.215
-42.116
-38.893
-35.575
-32.196
-28.79
-25.394
-22.046
-18.787
-15.659
-12.7
-9.946
-7.431
-5.178
-3.212
-1.557
-0.232
0.747
1.366
1.61
1.459
0.889
-0.117
-1.571
-3.472
-5.817
-8.605
-11.839
-15.516
-19.63
-24.168
-29.11
-34.436
-40.129
-46.158
-52.471
-58.988
-65.609
-72.235
-78.788
-85.205
-91.414
-97.342
-102.903
-108.001
-112.59
-116.645
-120.162
-123.178
-125.718
-127.783
-129.459
-130.909
-132.203
-133.333
-134.079
-133.972
-132.628
-129.834
-125.469
-119.536
-112.357
-104.506
-97.017
-91.461
-89.247
-91.442
-98.429
-109.708
-123.948
-139.248
-152.986
-161.755
-162.266
-151.481
-127.282
-89.583
-39.903
19.852
85.025
149.613
209.757
259.581
297.096
324.846
339.439
338.111
315.6
261.088
174.232
62.361
-59.782
-166.801
-240.515
-274.461
-274.258
-259.1
-245.276
-239.291
-239.755
-238.04
-228.411
-211.856
-191.491
-171.1
-152.937
-137.18
-123.432
-111.194
-100.203
-89.972
-80.476
-72.666
-66.727
-61.964
-58.048
-54.698
-51.684
-49.31
-47.358
-44.804
-41.445
-37.84
-34.246
-30.948
-28.051
-25.192
-22.385
-20.048
-18.153
-16.367
-14.458
-12.126
-9.266
-6.039
-2.466
1.518
5.867
10.515
15.361
20.255
25.125
29.943
34.671
39.292
43.789
48.142
52.364
56.46
60.406
64.181
67.785
71.216
74.472
77.541
80.37
82.924
85.241
87.392
89.377
91.174
92.743
94.008
94.976
95.73
96.256
96.506
96.71
97.137
97.671
98.402
99.475
100.387
102.554
107.282
112.419
117.286
118.128
110.487
99.296
87.811
80.876
85.184
94.76
104.527
110.963
108.228
100.27
91.181
81.945
75.247
69.769
63.717
57.503
50.926
44.178
37.725
31.388
25.002
18.649
12.382
6.261
0.431
-4.944
-9.784
-14.069
-17.842
-21.196
-24.183
-26.812
-29.105
-31.106
-32.855
-34.372
-35.64
-36.628
-37.336
-37.794
-38.068
-38.225
-38.296
-38.276
-38.136
-37.858
-37.439
-36.882
-36.181
-35.32
-34.295
-33.124
-31.846
-30.499
-29.109
-27.69
-26.246
-24.785
-23.323
-21.876
-20.462
-19.093
-17.782
-16.541
-15.385
-14.33
-13.386
-12.557
-11.839
-11.229
-10.724
-10.322
-10.022
-9.817
-9.702
-9.675
-9.733
-9.875
-10.099
-10.4
-10.777
-11.223
-11.736
-12.31
-12.94
-13.618
-14.34
-15.1
-15.894
-16.719
-17.574
-18.458
-19.372
-20.319
-21.299
-22.314
-23.367
-24.457
-25.589
-26.762
-27.982
-29.25
-30.571
-31.951
-33.396
-34.911
-36.498
-38.16
-39.895
-41.7
-43.57
-45.497
-47.471
-49.482
-51.521
-53.581
-55.654
-57.734
-59.815
-61.893
-63.962
-66.012
-68.027
-69.989
-71.877
-73.666
-75.332
-76.848
-78.192
-79.345
-80.289
-81.016
-81.52
-81.786
-81.799
-81.533
-80.952
-80.031
-78.751
-77.097
-75.068
-72.683
-69.974
-67.007
-63.852
-60.548
-57.124
-53.585
-49.905
-46.071
-42.047
-37.786
-33.304
-28.613
-23.732
-18.707
-13.532
-8.138
-2.476
3.567
10.216
17.62
25.901
35.165
45.345
56.31
68.004
80.328
92.905
105.355
117.739
129.979
141.936
153.991
164.387
171.359
176.669
180.669
186.948
199.857
214.079
226.061
230.683
221.073
203.572
183.5
164.453
152.488
143.63
134.086
123.671
110.511
96.72
84.833
75.02
67.735
62.828
59.46
56.858
54.092
50.005
43.989
36.187
27.423
19.168
13.381
12.267
18.777
36.596
67.797
113.167
170.853
235.252
302.955
371.891
440.572
510.435
574.893
620.575
635.108
604.727
530.224
427.21
310.879
199.373
101.888
15.938
-57.304
-116.742
-161.196
-186.348
-192.316
-183.116
-162.422
-134.853
-105.492
-77.887
-54.447
-36.737
-24.486
-16.372
-11.626
-9.049
-6.922
-4.732
-0.626
7.105
16.396
26.462
32.097
25.696
10.189
-10.071
-23.238
-11.933
23.61
75.306
126.749
153.41
147.087
112.079
59.327
9.87
-20.585
-27.543
-10.335
21.738
53.817
77.883
87.985
84.761
76.773
69.05
64.816
65.047
66.635
68.115
69.492
70.68
72.198
74.102
75.85
77.203
78.165
78.735
78.943
78.83
78.431
77.803
77.047
76.216
75.305
74.326
73.296
72.226
71.13
70.016
68.881
67.728
66.563
65.388
64.204
63.015
61.824
60.635
59.454
58.284
57.126
55.985
54.86
53.753
52.661
51.581
50.51
49.446
48.385
47.323
46.256
45.179
44.087
42.975
41.838
40.669
39.464
38.218
36.925
35.582
34.186
32.733
31.222
29.65
28.016
26.318
24.557
22.733
20.844
18.892
16.876
14.799
12.662
10.465
8.211
5.902
3.54
1.128
-1.331
-3.833
-6.375
-8.951
-11.559
-14.192
-16.844
-19.512
-22.188
-24.866
-27.542
-30.209
-32.86
-35.492
-38.098
-40.673
-43.212
-45.711
-48.164
-50.568
-52.919
-55.211
-57.443
-59.61
-61.709
-63.737
-65.69
-67.566
-69.361
-71.071
-72.693
-74.225
-75.662
-77.002
-78.244
-79.384
-80.421
-81.357
-82.19
-82.921
-83.551
-84.083
-84.519
-84.862
-85.116
-85.286
-85.376
-85.391
-85.338
-85.224
-85.055
-84.838
-84.581
-84.291
-83.978
-83.649
-83.314
-82.98
-82.657
-82.353
-82.079
-81.844
-81.658
-81.53
-81.469
-81.483
-81.581
-81.77
-82.055
-82.443
-82.935
-83.535
-84.246
-85.069
-86.003
-87.047
-88.199
-89.457
-90.816
-92.271
-93.817
-95.444
-97.145
-98.91
-100.73
-102.592
-104.485
-106.396
-108.311
-110.217
-112.101
-113.95
-115.749
-117.481
-119.134
-120.693
-122.145
-123.478
-124.679
-125.738
-126.648
-127.404
-128.004
-128.442
-128.717
-128.829
-128.779
-128.568
-128.194
-127.655
-126.95
-126.079
-125.05
-123.869
-122.538
-121.071
-119.484
-117.797
-116.036
-114.216
-112.339
-110.411
-108.451
-106.458
-104.45
-102.442
-100.421
-98.414
-96.492
-94.671
-92.959
-91.408
-89.978
-88.635
-87.44
-86.28
-84.94
-83.382
-81.581
-79.276
-76.338
-72.969
-69.015
-64.631
-60.975
-56.617
-49.943
-43.272
-36.793
-35.785
-48.57
-69.219
-91.166
-104.023
-90.909
-58.908
-23.206
2.738
-1.029
-30.81
-69.016
-104.56
-123.573
-125.425
-121.449
-116.411
-113.985
-115.056
-114.972
-112.017
-106.822
-99.357
-90.756
-82.641
-75.622
-69.999
-66.139
-63.574
-61.085
-57.976
-53.102
-44.23
-29.287
-6.237
26.704
70.083
121.64
177.139
232.703
284.221
332.952
386.146
445.451
506.093
553.62
561.98
514.198
411.003
266.239
108.428
-33.878
-148.14
-229.358
-279.232
-308.237
-320.452
-317.987
-305.882
-283.106
-251.187
-215.361
-178.602
-145.617
-119.899
-101.639
-90.316
-84.343
-81.573
-79.888
-77.351
-72.905
-66.227
-57.548
-47.501
-36.675
-25.673
-15.293
-6.276
1.012
6.523
10.478
13.236
15.056
16.131
16.687
16.98
17.276
17.759
18.517
19.578
20.934
22.582
24.545
26.811
29.33
32.092
35.068
38.184
41.477
45.024
48.818
52.877
57.181
61.518
65.73
69.871
73.705
76.696
78.859
80.4
81.152
81.819
81.853
78.21
71.478
64.643
62.13
73.871
102.207
137.667
168.257
176.724
153.915
111.816
68.582
42.888
48.398
77.742
113.758
143.557
156.587
154.116
146.401
138.854
135.074
135.89
137.675
139.148
140.604
141.794
143.227
145.095
146.887
148.405
149.679
150.599
151.101
151.234
151.019
150.484
149.71
148.709
147.431
145.887
144.094
142.051
139.776
137.256
134.454
131.395
128.112
124.56
120.71
116.54
112.012
107.177
102.131
96.844
91.25
85.58
80.104
74.687
69.363
64.197
58.665
54.246
52.382
51.057
49.669
44.499
31.09
14.408
-2.232
-13.905
-13.847
-8.017
-1.462
2.359
-2.274
-11.256
-20.427
-28.859
-34.014
-37.358
-40.778
-43.912
-47
-49.917
-52.282
-54.348
-56.321
-58.138
-59.79
-61.306
-62.688
-63.926
-65.018
-65.936
-66.641
-67.158
-67.511
-67.699
-67.73
-67.61
-67.343
-66.94
-66.411
-65.759
-64.988
-64.103
-63.11
-62.013
-60.821
-59.537
-58.17
-56.726
-55.211
-53.631
-51.993
-50.303
-48.567
-46.791
-44.981
-43.143
-41.284
-39.411
-37.531
-35.651
-33.779
-31.922
-30.085
-28.275
-26.499
-24.763
-23.072
-21.433
-19.852
-18.334
-16.888
-15.519
-14.232
-13.033
-11.926
-10.914
-10
-9.183
-8.465
-7.843
-7.317
-6.885
-6.545
-6.294
-6.128
-6.041
-6.028
-6.082
-6.196
-6.361
-6.566
-6.802
-7.059
-7.33
-7.608
-7.885
-8.154
-8.408
-8.641
-8.847
-9.021
-9.154
-9.242
-9.278
-9.257
-9.179
-9.042
-8.847
-8.598
-8.303
-7.968
-7.604
-7.219
-6.819
-6.411
-6.005
-5.604
-5.213
-4.837
-4.484
-4.164
-3.894
-3.69
-3.562
-3.521
-3.573
-3.723
-3.978
-4.337
-4.789
-5.328
-5.951
-6.673
-7.525
-8.529
-9.69
-10.998
-12.44
-14
-15.662
-17.381
-19.084
-20.696
-22.148
-23.408
-24.485
-25.378
-26.062
-26.487
-26.575
-26.282
-25.626
-24.627
-23.282
-21.605
-19.603
-17.351
-15.059
-12.933
-11.141
-9.818
-9.005
-8.714
-9.075
-10.253
-12.258
-14.959
-17.971
-20.706
-22.741
-23.754
-23.271
-20.86
-16.396
-10.004
-2.507
4.611
10.084
12.751
11.535
6.337
-1.921
-11.959
-21.395
-26.642
-24.06
-9.583
20.61
66.473
124.546
191.719
265.393
346.433
437.638
535.587
628.114
696.187
722.468
696.441
620.317
509.514
376.805
236.645
103.341
-18.494
-119.06
-193.311
-246.939
-282.598
-307.416
-325.354
-331.112
-322.522
-298.695
-262.177
-221.213
-180.981
-143.8
-111.645
-84.558
-63.1
-49.046
-42.1
-40.384
-42.622
-47.228
-52.346
-57.234
-60.948
-61.897
-59.676
-54.739
-47.457
-38.876
-30.302
-22.192
-14.976
-9.289
-5.214
-2.622
-1.302
-0.612
0.15
1.283
2.957
5.29
8.232
11.784
15.928
20.507
25.354
30.365
35.485
40.709
46.057
51.5
56.942
62.285
67.45
72.368
77.027
81.463
85.679
89.671
93.46
97.015
100.382
103.734
107.009
109.971
112.425
114.091
115.003
115.639
116.18
116.478
116.797
117.605
119.445
123.206
128.874
135.374
142.135
149.006
155.476
161.051
164.966
165.857
163.632
159.564
154.407
148.617
142.719
136.896
131.716
128.348
126.917
126.525
126.587
126.607
126.259
125.655
124.601
122.536
119.387
115.485
111.076
106.441
101.692
96.674
91.373
85.897
80.268
74.473
68.494
62.272
55.812
49.193
42.466
35.673
28.845
21.983
15.1
8.221
1.367
-5.435
-12.163
-18.797
-25.316
-31.701
-37.932
-43.99
-49.856
-55.517
-60.959
-66.174
-71.149
-75.863
-80.303
-84.453
-88.305
-91.851
-95.087
-98.005
-100.599
-102.869
-104.818
-106.459
-107.799
-108.848
-109.612
-110.098
-110.323
-110.299
-110.016
-109.451
-108.589
-107.432
-106.011
-104.379
-102.561
-100.604
-98.638
-96.814
-95.236
-93.966
-92.989
-92.194
-91.559
-90.949
-89.86
-87.943
-85.263
-81.946
-78.352
-73.753
-65.973
-54.041
-39.497
-28.98
-31.607
-52.435
-89.606
-128.449
-150.167
-143.159
-104.382
-50.287
-4.553
17.93
8.232
-23.902
-59.018
-85.692
-95.255
-89.784
-79.706
-70.059
-64.278
-62.969
-62.675
-62.298
-62.038
-61.734
-61.947
-62.789
-63.754
-64.652
-65.472
-66.135
-66.621
-66.985
-67.262
-67.498
-67.778
-68.13
-68.528
-68.973
-69.472
-70.02
-70.62
-71.271
-71.963
-72.694
-73.467
-74.284
-75.143
-76.042
-76.977
-77.94
-78.924
-79.921
-80.923
-81.922
-82.906
-83.864
-84.786
-85.664
-86.493
-87.267
-87.977
-88.615
-89.174
-89.648
-90.03
-90.308
-90.468
-90.499
-90.393
-90.145
-89.756
-89.227
-88.556
-87.75
-86.815
-85.76
-84.594
-83.319
-81.933
-80.438
-78.848
-77.184
-75.481
-73.767
-72.056
-70.368
-68.718
-67.106
-65.526
-63.949
-62.32
-60.601
-58.771
-56.812
-54.73
-52.514
-50.139
-47.6
-44.887
-41.995
-38.948
-35.756
-32.444
-29.113
-25.892
-22.926
-20.408
-18.463
-17.195
-16.765
-17.291
-18.895
-21.721
-25.782
-31.115
-37.849
-45.921
-55.134
-65.152
-75.235
-84.655
-92.958
-99.481
-103.555
-105.081
-104.117
-101.223
-97.846
-95.081
-93.562
-94.196
-97.507
-102.962
-109.596
-115.444
-117.145
-111.843
-97.176
-70.634
-30.346
24.408
93.281
174.35
262.138
349.308
429.431
497.242
552.599
599.097
637.005
661.142
658.226
612.365
514.504
367.86
192.518
16.428
-132.761
-235.731
-290.801
-307.729
-303.271
-292.514
-280.89
-268.148
-249.924
-224.373
-194.917
-165.756
-141.238
-123.369
-111.188
-103.127
-97.524
-92.459
-86.317
-78.385
-68.499
-57.017
-44.73
-32.292
-20.214
-9.212
0
7.1
12.027
15.006
16.471
16.744
16.11
14.888
13.399
11.965
10.839
10.156
9.973
10.327
11.24
12.745
14.856
17.528
20.698
24.292
28.235
32.473
36.936
41.542
46.198
50.799
55.27
59.567
63.663
67.543
71.2
74.628
77.832
80.839
83.673
86.352
88.89
91.289
93.56
95.719
97.785
99.773
101.692
103.546
105.336
107.064
108.73
110.331
111.859
113.303
114.656
115.914
117.073
118.131
119.084
119.925
120.649
121.252
121.729
122.071
122.27
122.316
122.2
121.915
121.453
120.806
119.967
118.928
117.683
116.229
114.56
112.673
110.565
108.235
105.681
102.906
99.909
96.695
93.265
89.624
85.778
81.733
77.497
73.078
68.485
63.728
58.82
53.773
48.599
43.314
37.931
32.467
26.938
21.363
15.759
10.145
4.539
-1.039
-6.572
-12.04
-17.426
-22.714
-27.886
-32.928
-37.825
-42.565
-47.136
-51.526
-55.728
-59.731
-63.53
-67.118
-70.49
-73.643
-76.574
-79.284
-81.772
-84.039
-86.088
-87.923
-89.546
-90.963
-92.18
-93.203
-94.038
-94.694
-95.178
-95.5
-95.669
-95.695
-95.588
-95.36
-95.019
-94.577
-94.043
-93.427
-92.738
-91.983
-91.17
-90.306
-89.398
-88.451
-87.471
-86.464
-85.432
-84.38
-83.311
-82.227
-81.131
-80.023
-78.903
-77.774
-76.636
-75.489
-74.335
-73.176
-72.011
-70.843
-69.673
-68.501
-67.327
-66.15
-64.971
-63.789
-62.601
-61.408
-60.209
-59.001
-57.786
-56.562
-55.333
-54.097
-52.856
-51.609
-50.356
-49.097
-47.833
-46.562
-45.285
-44.002
-42.715
-41.425
-40.137
-38.851
-37.57
-36.295
-35.025
-33.761
-32.503
-31.252
-30.004
-28.761
-27.524
-26.296
-25.079
-23.88
-22.7
-21.543
-20.421
-19.343
-18.315
-17.342
-16.426
-15.565
-14.769
-14.053
-13.404
-12.817
-12.29
-11.818
-11.431
-11.168
-11.02
-10.967
-11.062
-11.346
-11.855
-12.634
-13.639
-14.785
-16.119
-17.738
-19.465
-21.077
-22.722
-24.374
-25.962
-27.974
-28.952
-27.473
-25.452
-23.438
-25.036
-34.592
-47.328
-60.073
-68.055
-64.673
-55.663
-45.879
-38.665
-39.587
-44.673
-49.95
-54.606
-56.294
-56.615
-57.532
-58.747
-60.525
-62.688
-64.744
-66.881
-69.259
-71.779
-74.53
-77.575
-80.726
-83.82
-86.557
-88.474
-89.375
-89.012
-86.798
-82.448
-76.182
-68.273
-59.583
-51.021
-42.377
-33.604
-25.164
-16.682
-7.384
3.451
18.069
38.657
64.986
97.315
134.653
172.419
208.95
243.745
276.377
311.118
344.896
366.47
364.784
327.25
254.843
162.995
66.704
-18.43
-86.444
-141.694
-185.149
-218.245
-241.335
-251.452
-249.267
-237.241
-217.495
-193.65
-169.242
-145.58
-123.008
-101.865
-82.279
-64.81
-49.902
-37.081
-25.431
-15.168
-7.427
-2.881
-1.418
-1.988
-3.582
-5.892
-8.91
-12.111
-14.331
-14.669
-13.01
-10.074
-6.551
-2.708
1.405
5.733
9.917
13.611
16.862
20.084
23.668
27.803
32.498
37.621
43.123
48.999
55.153
61.423
67.628
73.648
79.455
85.08
90.547
95.86
101.013
105.993
110.806
115.458
119.939
124.246
128.375
132.325
136.105
139.722
143.186
146.505
149.68
152.706
155.574
158.275
160.808
163.169
165.355
167.365
169.196
170.85
172.327
173.631
174.763
175.723
176.51
177.123
177.559
177.816
177.889
177.774
177.467
176.963
176.256
175.345
174.224
172.89
171.341
169.572
167.581
165.366
162.923
160.25
157.345
154.206
150.832
147.226
143.386
139.315
135.016
130.492
125.748
120.791
115.628
110.266
104.716
98.99
93.1
87.061
80.889
74.603
68.221
61.764
55.25
48.703
42.144
35.595
29.078
22.615
16.228
9.938
3.768
-2.264
-8.135
-13.826
-19.32
-24.598
-29.643
-34.442
-38.98
-43.245
-47.228
-50.919
-54.314
-57.406
-60.196
-62.681
-64.866
-66.753
-68.35
-69.664
-70.707
-71.49
-72.027
-72.333
-72.424
-72.317
-72.03
-71.581
-70.99
-70.274
-69.454
-68.547
-67.572
-66.547
-65.491
-64.42
-63.351
-62.299
-61.28
-60.308
-59.395
-58.552
-57.79
-57.118
-56.541
-56.067
-55.699
-55.441
-55.292
-55.252
-55.319
-55.491
-55.764
-56.131
-56.587
-57.124
-57.735
-58.41
-59.142
-59.922
-60.74
-61.586
-62.452
-63.33
-64.213
-65.091
-65.958
-66.806
-67.63
-68.425
-69.186
-69.907
-70.584
-71.213
-71.792
-72.318
-72.789
-73.203
-73.559
-73.855
-74.092
-74.27
-74.391
-74.454
-74.46
-74.409
-74.306
-74.151
-73.946
-73.693
-73.394
-73.053
-72.676
-72.268
-71.834
-71.376
-70.9
-70.408
-69.907
-69.394
-68.866
-68.319
-67.753
-67.167
-66.564
-65.943
-65.305
-64.653
-63.997
-63.342
-62.697
-62.061
-61.425
-60.792
-60.166
-59.559
-58.992
-58.474
-58.003
-57.589
-57.235
-56.939
-56.686
-56.433
-56.115
-55.685
-55.113
-54.379
-53.478
-52.386
-51.067
-49.509
-47.7
-45.65
-43.384
-40.907
-38.235
-35.435
-32.621
-29.956
-27.642
-25.828
-24.614
-24.09
-24.329
-25.432
-27.52
-30.657
-34.877
-40.15
-46.455
-53.832
-62.174
-71.158
-80.243
-88.671
-95.669
-100.706
-103.373
-103.261
-100.414
-95.162
-88.143
-80.579
-73.659
-68.327
-65.145
-64.118
-64.39
-64.526
-62.792
-56.86
-44.184
-21.919
12.395
60.306
120.372
187.729
257.759
325.843
392.21
462.462
536.388
607.876
661.934
675.123
634.413
540.967
406.214
250.932
93.647
-54.91
-183.242
-277.928
-331.961
-343.323
-319.999
-281.697
-242.188
-207.992
-180.164
-152.828
-124.418
-97.112
-72.898
-55.12
-44.406
-39.324
-38.68
-39.926
-40.613
-39.848
-37.374
-33.299
-28.082
-21.747
-13.993
-5.521
2.422
9.179
14.463
18.342
21.214
23.163
23.923
23.703
23.096
22.521
22.358
22.753
23.562
24.782
26.537
28.852
31.679
34.943
38.5
42.271
46.266
50.453
54.79
59.214
63.611
67.906
72.06
76.042
79.839
83.445
86.844
90.033
93.024
95.825
98.448
100.899
103.172
105.265
107.179
108.921
110.507
111.948
113.256
114.437
115.491
116.413
117.189
117.811
118.275
118.58
118.736
118.745
118.606
118.326
117.914
117.383
116.741
115.98
115.07
113.985
112.706
111.235
109.596
107.789
105.794
103.566
101.027
98.15
94.95
91.45
87.688
83.661
79.296
74.628
69.82
64.935
59.97
54.683
48.529
41.285
33.155
24.416
15.454
6.689
-1.613
-8.569
-12.547
-12.535
-8.345
-0.555
9.284
19.709
29.912
38.382
42.717
41.063
32.336
17.002
-2.491
-23.717
-45.336
-65.776
-82.967
-94.934
-99.823
-97.438
-89.898
-79.609
-67.933
-55.818
-44.179
-34.29
-28.124
-26.679
-28.995
-33.534
-39.499
-46.442
-53.923
-61.345
-66.623
-69.118
-71.575
-74.154
-75.105
-70.813
-53.007
-22.603
10.949
39.278
50.029
40.983
18.933
-14.764
-54.571
-96.123
-132.842
-150.12
-139.468
-99.354
-43.435
5.23
31.387
26.148
-2.101
-34.636
-60.156
-70.078
-65.547
-56.346
-47.253
-41.464
-39.945
-39.403
-38.665
-38.016
-37.296
-37.094
-37.617
-38.351
-39.027
-39.581
-39.907
-39.979
-39.874
-39.636
-39.306
-38.961
-38.632
-38.294
-37.952
-37.618
-37.292
-36.98
-36.684
-36.403
-36.145
-35.924
-35.748
-35.617
-35.527
-35.471
-35.446
-35.451
-35.485
-35.542
-35.62
-35.709
-35.804
-35.897
-35.978
-36.04
-36.073
-36.07
-36.024
-35.933
-35.792
-35.599
-35.348
-35.035
-34.652
-34.191
-33.643
-32.995
-32.239
-31.37
-30.384
-29.285
-28.078
-26.766
-25.353
-23.843
-22.238
-20.545
-18.768
-16.902
-14.949
-12.917
-10.829
-8.724
-6.64
-4.597
-2.603
-0.662
1.23
3.071
4.87
6.671
8.521
10.467
12.542
14.74
17.035
19.422
21.933
24.62
27.505
30.546
33.661
36.791
39.91
43.016
46.056
48.863
51.296
53.211
54.451
54.954
54.665
53.419
51.085
47.727
43.246
37.788
32.267
27.328
23.331
21.125
19.382
16.523
14.333
12.612
13.676
20.574
26.904
28.798
21.805
0.442
-27.085
-52.752
-69.465
-67.462
-46.891
-9.677
43.305
107.989
182.733
264.836
348.482
427.304
493.153
539.409
562.296
559.208
530.096
477.305
404.296
316.687
222.448
128.597
41.488
-32.442
-89.492
-128.198
-148.115
-151.132
-141.124
-121.637
-96.812
-71.719
-49.596
-32.34
-21.268
-16.083
-15.627
-19
-24.665
-30.425
-35.034
-37.813
-38.363
-37.101
-34.617
-31.304
-27.844
-25.056
-23.313
-22.78
-23.478
-25.119
-27.435
-30.208
-33.096
-35.774
-38.082
-39.918
-41.253
-42.111
-42.454
-42.237
-41.466
-40.147
-38.293
-35.925
-33.046
-29.674
-25.876
-21.736
-17.35
-12.816
-8.192
-3.518
1.166
5.831
10.45
15
19.478
23.881
28.199
32.415
36.514
40.476
44.3
47.985
51.532
54.945
58.223
61.367
64.377
67.25
69.98
72.561
74.983
77.235
79.311
81.206
82.917
84.442
85.78
86.93
87.891
88.664
89.248
89.641
89.84
89.844
89.65
89.257
88.664
87.872
86.881
85.693
84.308
82.729
80.954
78.987
76.826
74.473
71.929
69.193
66.267
63.152
59.851
56.367
52.703
48.863
44.851
40.671
36.328
31.829
27.177
22.381
17.448
12.387
7.21
1.928
-3.445
-8.897
-14.413
-19.978
-25.579
-31.202
-36.833
-42.459
-48.066
-53.639
-59.163
-64.622
-70
-75.283
-80.453
-85.496
-90.397
-95.143
-99.72
-104.118
-108.325
-112.327
-116.116
-119.679
-123.007
-126.09
-128.919
-131.487
-133.788
-135.822
-137.588
-139.089
-140.33
-141.318
-142.06
-142.568
-142.847
-142.905
-142.749
-142.385
-141.82
-141.064
-140.123
-139.01
-137.741
-136.332
-134.807
-133.19
-131.501
-129.76
-127.985
-126.191
-124.395
-122.612
-120.847
-119.114
-117.431
-115.823
-114.331
-112.991
-111.812
-110.798
-109.941
-109.21
-108.582
-108.028
-107.493
-106.945
-106.372
-105.781
-105.223
-104.754
-104.399
-104.17
-104.051
-104.017
-104.082
-104.263
-104.57
-105.058
-105.787
-106.833
-108.341
-110.425
-113.125
-116.439
-120.277
-124.483
-128.961
-133.62
-138.359
-143.111
-147.763
-152.192
-156.38
-160.267
-163.677
-166.422
-168.228
-168.796
-168.051
-166.027
-162.694
-158.109
-152.612
-146.557
-140.008
-133.228
-126.361
-118.853
-112.118
-107.563
-103.343
-99.189
-91.674
-76.422
-58.658
-42.453
-32.961
-36.572
-47.07
-58.421
-67.883
-73.22
-78.103
-83.461
-85.3
-76.909
-57.782
-36.682
-23.809
-31.797
-61
-98.051
-132.01
-151.29
-152.605
-144.213
-131.594
-119.498
-110.775
-102.643
-93.977
-85.501
-77.86
-72.901
-71.494
-72.77
-75.59
-79.142
-82.951
-86.858
-90.507
-93.015
-93.772
-92.759
-90.338
-87.22
-84.07
-80.733
-77.077
-74.041
-70.476
-65.017
-58.553
-48.839
-39.075
-36.541
-38.517
-43.089
-40.886
-13.725
37.177
102.206
162.319
185.994
162.22
95.115
0.545
-91.283
-161.778
-203.215
-215.523
-208.227
-185.752
-147.597
-93.045
-20.212
68.127
164.31
260.463
348.261
420.349
471.578
497.765
497.968
473.451
425.001
356.611
270.535
169.483
65.478
-31.938
-112.087
-163.78
-191.059
-198.931
-192.363
-180.327
-162.73
-139.439
-114.059
-88.098
-65.31
-48.788
-38.375
-33.327
-32.255
-33.369
-34.917
-35.445
-34.118
-30.556
-24.986
-18.088
-10.425
-2.642
4.444
10.394
15.031
18.302
20.448
21.785
22.552
23.085
23.723
24.605
25.82
27.41
29.35
31.684
34.468
37.695
41.367
45.482
50.021
54.979
60.335
66.016
71.937
78.005
84.12
90.228
96.294
102.286
108.188
113.981
119.649
125.195
130.625
135.939
141.132
146.195
151.116
155.898
160.54
165.055
169.455
173.729
177.864
181.85
185.67
189.327
192.839
196.173
199.291
202.233
205.029
207.702
210.293
212.755
215.003
217.075
219.046
220.703
221.791
222.453
222.666
222.38
222.12
220.452
215.982
210.698
205.206
203.162
208.947
217.722
226.267
229.784
221.678
207.799
193.109
181.009
177.12
177.45
177.951
177.738
174.354
169.254
164.307
159.18
154.129
149.052
143.595
138.022
132.551
127.137
121.786
116.54
111.414
106.411
101.541
96.783
92.111
87.554
83.139
78.871
74.759
70.808
67.022
63.409
59.976
56.724
53.65
50.753
48.031
45.482
43.101
40.883
38.823
36.915
35.149
33.519
32.016
30.631
29.355
28.178
27.092
26.086
25.151
24.278
23.458
22.683
21.943
21.232
20.542
19.867
19.2
18.537
17.873
17.205
16.527
15.839
15.135
14.415
13.673
12.909
12.118
11.297
10.443
9.554
8.627
7.658
6.644
5.582
4.47
3.304
2.08
0.796
-0.553
-1.968
-3.452
-5.008
-6.638
-8.342
-10.122
-11.979
-13.916
-15.932
-18.03
-20.21
-22.474
-24.824
-27.258
-29.777
-32.378
-35.061
-37.819
-40.65
-43.548
-46.504
-49.512
-52.564
-55.651
-58.764
-61.892
-65.023
-68.146
-71.248
-74.316
-77.335
-80.293
-83.179
-85.98
-88.687
-91.293
-93.79
-96.17
-98.428
-100.558
-102.554
-104.411
-106.123
-107.687
-109.098
-110.354
-111.455
-112.403
-113.2
-113.854
-114.37
-114.758
-115.028
-115.192
-115.259
-115.238
-115.139
-114.972
-114.748
-114.479
-114.177
-113.855
-113.528
-113.21
-112.916
-112.655
-112.432
-112.252
-112.115
-112.019
-111.964
-111.947
-111.969
-112.039
-112.17
-112.376
-112.682
-113.102
-113.636
-114.279
-115.01
-115.791
-116.588
-117.356
-118.037
-118.597
-119.017
-119.276
-119.377
-119.303
-119.012
-118.461
-117.596
-116.349
-114.696
-112.612
-110.076
-107.167
-103.99
-100.679
-97.452
-94.469
-91.788
-89.497
-87.681
-86.27
-85.158
-84.111
-82.7
-80.61
-77.67
-73.716
-68.648
-62.65
-56.113
-49.759
-44.678
-41.891
-42.245
-46.124
-53.359
-63.056
-73.564
-82.667
-87.756
-85.611
-72.652
-46.85
-7.26
44.349
102.745
164.923
228.776
293.101
359.692
422.09
467.563
484.073
457.789
389.555
294.248
186.062
82.23
-9.283
-91.662
-163.666
-223.872
-270.449
-297.945
-305.272
-295.126
-269.502
-232.033
-188.253
-142.843
-99.788
-62.9
-33.93
-13.572
-3.307
-3.254
-11.361
-25.09
-41.58
-57.905
-72.687
-85.041
-93.419
-97.111
-96.411
-92.049
-85.469
-78.249
-71.025
-64.077
-57.862
-52.533
-48.131
-44.613
-41.5
-38.179
-34.368
-29.985
-25.024
-19.599
-13.75
-7.453
-0.788
6.102
13.094
20.082
26.998
33.845
40.63
47.318
53.849
60.17
66.244
72.081
77.727
83.199
88.467
93.553
98.559
103.561
108.585
113.605
118.527
123.245
127.767
131.921
135.156
137.315
138.716
139.436
139.872
139.372
135.615
129.163
122.504
120.176
129.709
151.435
180.484
208.061
219.092
207.712
174.009
124.101
77.986
50.401
51.834
86.672
137.575
184.322
210.566
203.824
173.033
135.995
105.254
91.415
92.742
98.998
104.971
107.034
104.643
101.394
98.348
95.164
92.001
88.317
83.982
79.507
75.068
70.648
66.358
62.262
58.318
54.502
50.78
47.078
43.379
39.724
36.119
32.563
29.067
25.636
22.276
19.004
15.825
12.739
9.748
6.856
4.065
1.379
-1.198
-3.664
-6.019
-8.262
-10.392
-12.409
-14.314
-16.109
-17.795
-19.374
-20.85
-22.223
-23.498
-24.676
-25.76
-26.751
-27.653
-28.465
-29.19
-29.83
-30.384
-30.856
-31.246
-31.557
-31.79
-31.949
-32.037
-32.056
-32.011
-31.906
-31.745
-31.533
-31.276
-30.977
-30.642
-30.277
-29.887
-29.477
-29.052
-28.618
-28.178
-27.739
-27.305
-26.88
-26.468
-26.075
-25.705
-25.363
-25.054
-24.784
-24.558
-24.383
-24.265
-24.21
-24.223
-24.31
-24.476
-24.723
-25.054
-25.472
-25.975
-26.565
-27.241
-28
-28.842
-29.764
-30.762
-31.833
-32.971
-34.171
-35.428
-36.735
-38.085
-39.469
-40.882
-42.315
-43.763
-45.219
-46.677
-48.129
-49.567
-50.984
-52.37
-53.716
-55.012
-56.247
-57.412
-58.497
-59.495
-60.4
-61.208
-61.92
-62.534
-63.052
-63.474
-63.801
-64.034
-64.171
-64.211
-64.15
-63.986
-63.719
-63.352
-62.894
-62.356
-61.748
-61.076
-60.351
-59.577
-58.765
-57.923
-57.046
-56.137
-55.201
-54.253
-53.333
-52.475
-51.696
-51.006
-50.402
-49.871
-49.404
-48.979
-48.54
-48.034
-47.401
-46.587
-45.594
-44.436
-43.113
-41.612
-39.885
-37.894
-35.663
-33.252
-30.719
-28.131
-25.541
-23.025
-20.744
-18.885
-17.658
-17.256
-17.786
-19.304
-21.822
-25.382
-30.128
-36.042
-42.861
-50.166
-57.295
-63.648
-69.058
-73.322
-76.031
-77.163
-76.825
-75.409
-74.281
-74.763
-77.19
-81.54
-87.285
-93.036
-97.564
-99.328
-95.504
-82.808
-58.596
-21.574
28.111
87.591
151.901
218.37
284.364
347.617
409.85
465.323
503.368
516.485
491.808
427.293
333.678
217.379
95.492
-15.082
-108.437
-172.078
-204.568
-216.544
-213.142
-204.186
-195.444
-182.186
-164.027
-142.673
-119.907
-100.808
-88.003
-80.768
-77.84
-77.654
-78.483
-78.703
-77.39
-73.946
-68.153
-60.627
-52.081
-43.016
-34.13
-26.133
-19.347
-13.966
-10.001
-7.169
-5.242
-4.017
-3.207
-2.568
-1.907
-1.086
-0.05
1.228
2.814
4.763
7.11
9.874
13.039
16.591
20.521
24.804
29.402
34.254
39.289
44.444
49.652
54.864
60.047
65.174
70.221
75.178
80.035
84.789
89.451
94.024
98.505
102.894
107.189
111.39
115.501
119.527
123.469
127.327
131.096
134.767
138.33
141.77
145.072
148.216
151.182
153.948
156.5
158.82
160.894
162.71
164.253
165.508
166.465
167.113
167.44
167.436
167.09
166.396
165.346
163.938
162.17
160.041
157.553
154.71
151.516
147.981
144.112
139.923
135.424
130.631
125.559
120.228
114.656
108.865
102.877
96.715
90.403
83.965
77.425
70.809
64.142
57.447
50.75
44.074
37.443
30.878
24.401
18.033
11.793
5.7
-0.23
-5.982
-11.541
-16.896
-22.035
-26.95
-31.634
-36.08
-40.286
-44.248
-47.967
-51.442
-54.675
-57.671
-60.432
-62.966
-65.277
-67.373
-69.263
-70.954
-72.455
-73.777
-74.928
-75.918
-76.757
-77.455
-78.021
-78.465
-78.795
-79.021
-79.151
-79.192
-79.154
-79.044
-78.869
-78.635
-78.35
-78.021
-77.652
-77.249
-76.818
-76.364
-75.891
-75.405
-74.909
-74.408
-73.905
-73.405
-72.912
-72.429
-71.96
-71.509
-71.079
-70.675
-70.299
-69.956
-69.648
-69.38
-69.153
-68.973
-68.84
-68.757
-68.727
-68.75
-68.827
-68.959
-69.145
-69.383
-69.672
-70.009
-70.389
-70.809
-71.263
-71.747
-72.254
-72.778
-73.314
-73.856
-74.398
-74.933
-75.456
-75.961
-76.441
-76.89
-77.304
-77.675
-77.999
-78.27
-78.485
-78.64
-78.731
-78.756
-78.712
-78.6
-78.42
-78.175
-77.866
-77.496
-77.07
-76.595
-76.08
-75.534
-74.965
-74.382
-73.795
-73.217
-72.66
-72.134
-71.647
-71.202
-70.805
-70.459
-70.168
-69.937
-69.763
-69.65
-69.604
-69.632
-69.745
-69.955
-70.269
-70.689
-71.216
-71.841
-72.554
-73.35
-74.22
-75.156
-76.146
-77.174
-78.219
-79.261
-80.258
-81.165
-81.928
-82.485
-82.783
-82.785
-82.478
-81.883
-81.037
-79.958
-78.656
-77.114
-75.318
-73.321
-71.191
-68.983
-66.773
-64.562
-62.383
-60.472
-59.024
-57.949
-56.877
-55.236
-52.564
-48.9
-44.481
-39.001
-31.952
-23.727
-15.791
-9.716
-6.86
-5.793
-2.295
3.743
10.301
13.991
8.068
-3.46
-8.893
1.69
41.399
109.423
189.506
266.976
324.887
354.806
363.334
356.476
336.096
301.395
246.177
164.397
62.901
-43.879
-141.746
-213.516
-254.249
-272.58
-276.17
-275.261
-274.24
-267.741
-253.356
-231.022
-203.628
-177.337
-155.255
-137.82
-124.581
-114.372
-106.642
-100.82
-95.397
-89.27
-82.064
-73.792
-65.007
-56.188
-47.506
-39.322
-32.216
-26.511
-22.289
-19.439
-17.549
-16.28
-15.409
-14.64
-13.748
-12.584
-10.997
-8.94
-6.439
-3.482
-0.076
3.748
7.993
12.628
17.592
22.843
28.307
33.898
39.538
45.132
50.615
55.952
61.113
66.088
70.876
75.474
79.89
84.145
88.245
92.194
96.001
99.666
103.198
106.611
109.919
113.137
116.276
119.338
122.325
125.234
128.061
130.798
133.434
135.956
138.352
140.613
142.731
144.7
146.511
148.154
149.617
150.893
151.971
152.838
153.483
153.893
154.057
153.966
153.612
152.987
152.085
150.902
149.433
147.676
145.632
143.299
140.681
137.78
134.6
131.148
127.432
123.464
119.253
114.813
110.157
105.301
100.262
95.056
89.702
84.22
78.628
72.949
67.205
61.417
55.609
49.802
44.022
38.289
32.626
27.056
21.597
16.27
11.093
6.085
1.26
-3.366
-7.781
-11.973
-15.931
-19.649
-23.118
-26.335
-29.297
-32.002
-34.449
-36.64
-38.577
-40.264
-41.706
-42.908
-43.878
-44.624
-45.157
-45.485
-45.622
-45.578
-45.367
-45.002
-44.495
-43.861
-43.113
-42.264
-41.327
-40.318
-39.248
-38.131
-36.981
-35.808
-34.623
-33.438
-32.262
-31.103
-29.969
-28.868
-27.805
-26.788
-25.822
-24.913
-24.065
-23.284
-22.572
-21.933
-21.369
-20.882
-20.475
-20.146
-19.898
-19.731
-19.645
-19.641
-19.718
-19.876
-20.112
-20.424
-20.809
-21.263
-21.781
-22.358
-22.988
-23.665
-24.386
-25.145
-25.937
-26.756
-27.597
-28.453
-29.32
-30.188
-31.051
-31.899
-32.724
-33.519
-34.277
-34.993
-35.659
-36.27
-36.82
-37.303
-37.713
-38.046
-38.292
-38.445
-38.5
-38.453
-38.301
-38.045
-37.685
-37.226
-36.675
-36.042
-35.333
-34.554
-33.714
-32.816
-31.867
-30.871
-29.83
-28.749
-27.637
-26.509
-25.378
-24.261
-23.169
-22.113
-21.104
-20.151
-19.263
-18.443
-17.687
-16.997
-16.383
-15.869
-15.494
-15.283
-15.24
-15.369
-15.67
-16.144
-16.783
-17.556
-18.392
-19.225
-20.012
-20.737
-21.417
-22.054
-22.621
-23.081
-23.379
-23.506
-23.496
-23.346
-23.028
-22.512
-21.767
-20.877
-20.05
-19.477
-19.315
-19.666
-20.525
-21.974
-24.184
-27.143
-30.699
-34.486
-37.863
-40.398
-41.937
-42.177
-40.867
-38.118
-34.162
-29.751
-26.324
-24.903
-26.18
-30.968
-39.335
-50.329
-62.498
-73.504
-80.176
-79.776
-69.624
-46.795
-9.771
41.083
104.089
176.22
253.382
331.113
404.096
465.999
511.261
536.153
538.413
516.962
472.164
406.069
322.618
227.819
128.477
30.683
-59.906
-137.616
-197.969
-238.625
-259.249
-261.719
-249.332
-225.456
-193.928
-159.528
-126.643
-98.155
-75.579
-59.043
-47.819
-41.169
-38.034
-36.625
-35.071
-32.264
-27.848
-22.057
-15.478
-8.566
-1.694
4.548
9.522
12.918
14.727
15.17
14.671
13.586
12.169
10.719
9.483
8.622
8.274
8.49
9.253
10.565
12.421
14.799
17.697
21.091
24.918
29.126
33.642
38.375
43.247
48.169
53.073
57.922
62.684
67.341
71.889
76.323
80.648
84.877
89.011
93.047
96.988
100.832
104.579
108.239
111.817
115.32
118.752
122.11
125.388
128.577
131.666
134.64
137.483
140.177
142.704
145.052
147.212
149.173
150.926
152.46
153.765
154.834
155.657
156.223
156.523
156.547
156.286
155.732
154.881
153.729
152.272
150.509
148.44
146.066
143.39
140.416
137.15
133.599
129.771
125.674
121.323
116.73
111.909
106.875
101.647
96.241
90.677
84.973
79.148
73.223
67.217
61.151
55.046
48.922
42.8
36.701
30.647
24.656
18.75
12.948
7.267
1.725
-3.662
-8.878
-13.91
-18.746
-23.375
-27.787
-31.974
-35.929
-39.649
-43.13
-46.37
-49.37
-52.132
-54.659
-56.956
-59.028
-60.883
-62.528
-63.972
-65.224
-66.296
-67.197
-67.939
-68.532
-68.99
-69.324
-69.546
-69.668
-69.701
-69.658
-69.549
-69.385
-69.175
-68.93
-68.658
-68.368
-68.068
-67.764
-67.462
-67.169
-66.889
-66.627
-66.385
-66.164
-65.968
-65.795
-65.646
-65.521
-65.417
-65.335
-65.272
-65.227
-65.199
-65.186
-65.187
-65.199
-65.221
-65.251
-65.287
-65.329
-65.374
-65.424
-65.476
-65.532
-65.592
-65.658
-65.73
-65.811
-65.9
-66
-66.111
-66.233
-66.368
-66.516
-66.679
-66.858
-67.055
-67.272
-67.512
-67.775
-68.063
-68.376
-68.714
-69.076
-69.459
-69.861
-70.277
-70.707
-71.146
-71.594
-72.046
-72.501
-72.956
-73.406
-73.848
-74.278
-74.689
-75.076
-75.435
-75.761
-76.051
-76.303
-76.518
-76.696
-76.842
-76.96
-77.053
-77.124
-77.174
-77.205
-77.216
-77.207
-77.172
-77.112
-77.029
-76.931
-76.831
-76.738
-76.663
-76.615
-76.603
-76.636
-76.717
-76.842
-77.004
-77.196
-77.422
-77.699
-78.057
-78.52
-79.095
-79.779
-80.571
-81.465
-82.443
-83.467
-84.471
-85.387
-86.178
-86.836
-87.377
-87.82
-88.162
-88.376
-88.427
-88.295
-87.979
-87.493
-86.818
-85.935
-84.854
-83.623
-82.4
-81.374
-80.661
-80.341
-80.443
-80.945
-81.913
-83.478
-85.608
-88.128
-90.694
-92.752
-93.948
-94.1
-92.847
-89.855
-85.008
-78.447
-71.136
-64.601
-59.994
-58.282
-60.256
-65.908
-74.651
-85.259
-94.918
-100.232
-98.329
-85.788
-59.734
-19.41
35.088
100.832
171.208
242.188
310.843
375.209
437.672
492.867
529.579
537.745
505.012
432.983
336.746
230.639
130.647
43.672
-33.898
-102.35
-160.584
-206.666
-236.552
-249.984
-249.734
-238.544
-219.51
-196.161
-172.282
-150.692
-132.983
-119.618
-109.881
-103.107
-98.93
-96.279
-93.527
-89.617
-84.051
-76.89
-68.808
-60.353
-51.826
-43.729
-36.693
-31.093
-27.077
-24.555
-23.185
-22.634
-22.64
-22.91
-23.136
-23.105
-22.667
-21.708
-20.2
-18.121
-15.44
-12.156
-8.289
-3.853
1.117
6.56
12.425
18.629
25.075
31.668
38.307
44.91
51.428
57.815
64.04
70.084
75.934
81.584
87.039
92.299
97.357
102.213
106.861
111.3
115.536
119.578
123.432
127.104
130.595
133.9
137.017
139.939
142.657
145.161
147.438
149.479
151.277
152.831
154.137
155.195
156.001
156.556
156.859
156.908
156.704
156.245
155.528
154.553
153.321
151.833
150.091
148.099
145.86
143.378
140.657
137.703
134.522
131.119
127.502
123.677
119.652
115.436
111.04
106.475
101.75
96.878
91.872
86.744
81.509
76.178
70.767
65.289
59.758
54.19
48.6
43.001
37.411
31.844
26.315
20.841
15.435
10.114
4.889
-0.224
-5.213
-10.065
-14.77
-19.315
-23.691
-27.888
-31.897
-35.712
-39.324
-42.73
-45.925
-48.905
-51.669
-54.215
-56.544
-58.657
-60.557
-62.246
-63.728
-65.009
-66.095
-66.992
-67.708
-68.251
-68.63
-68.855
-68.934
-68.878
-68.696
-68.399
-67.997
-67.499
-66.915
-66.256
-65.531
-64.749
-63.92
-63.053
-62.155
-61.235
-60.3
-59.357
-58.411
-57.468
-56.533
-55.61
-54.704
-53.818
-52.955
-52.118
-51.31
-50.532
-49.787
-49.074
-48.394
-47.748
-47.136
-46.559
-46.017
-45.509
-45.038
-44.604
-44.208
-43.851
-43.535
-43.261
-43.03
-42.842
-42.699
-42.602
-42.554
-42.556
-42.611
-42.72
-42.889
-43.117
-43.409
-43.765
-44.186
-44.674
-45.228
-45.847
-46.531
-47.279
-48.088
-48.959
-49.889
-50.877
-51.918
-53.011
-54.149
-55.326
-56.537
-57.771
-59.021
-60.277
-61.53
-62.772
-63.995
-65.191
-66.351
-67.466
-68.53
-69.532
-70.463
-71.316
-72.079
-72.746
-73.309
-73.764
-74.107
-74.337
-74.454
-74.463
-74.368
-74.174
-73.884
-73.502
-73.032
-72.479
-71.843
-71.124
-70.326
-69.455
-68.523
-67.548
-66.545
-65.531
-64.521
-63.529
-62.568
-61.649
-60.775
-59.941
-59.146
-58.396
-57.708
-57.116
-56.651
-56.325
-56.145
-56.108
-56.206
-56.421
-56.717
-57.026
-57.281
-57.44
-57.486
-57.434
-57.304
-57.098
-56.799
-56.367
-55.778
-55.02
-54.09
-52.984
-51.692
-50.241
-48.706
-47.228
-45.976
-45.078
-44.615
-44.63
-45.15
-46.171
-47.734
-49.932
-52.679
-55.774
-58.892
-61.535
-63.266
-63.769
-62.702
-59.619
-54.479
-47.718
-40.187
-33.342
-28.611
-26.947
-28.75
-33.941
-41.526
-49.615
-55.87
-56.841
-48.5
-27.488
8.285
58.005
117.833
183.632
252.386
324.617
402.377
482.457
555.137
602.863
607.416
561.78
472.744
359.696
243.815
138.429
47.355
-33.056
-104.507
-164.573
-209.841
-236.618
-244.926
-238.355
-220.526
-195.34
-167.263
-140.101
-116.5
-97.985
-84.606
-75.458
-69.795
-66.785
-64.907
-62.538
-58.652
-52.825
-45.356
-36.938
-28.096
-19.254
-10.986
-3.921
1.564
5.373
7.672
8.807
9.11
8.849
8.302
7.781
7.506
7.625
8.256
9.43
11.171
13.514
16.462
19.999
24.112
28.763
33.888
39.435
45.323
51.46
57.763
64.137
70.504
76.821
83.045
89.15
95.123
100.951
106.631
112.171
117.571
122.826
127.941
132.909
137.732
142.415
146.964
151.385
155.681
159.848
163.88
167.769
171.502
175.068
178.452
181.636
184.605
187.349
189.86
192.129
194.149
195.912
197.409
198.635
199.583
200.246
200.615
200.685
200.449
199.904
199.048
197.878
196.394
194.597
192.489
190.072
187.35
184.329
181.014
177.414
173.535
169.387
164.982
160.332
155.45
150.349
145.045
139.552
133.887
128.067
122.109
116.03
109.849
103.583
97.253
90.878
84.475
78.065
71.667
65.3
58.982
52.731
46.565
40.5
34.553
28.739
23.07
17.562
12.224
7.069
2.104
-2.66
-7.218
-11.563
-15.69
-19.597
-23.279
-26.737
-29.968
-32.974
-35.756
-38.316
-40.659
-42.788
-44.708
-46.426
-47.949
-49.282
-50.435
-51.415
-52.23
-52.89
-53.404
-53.78
-54.029
-54.16
-54.182
-54.104
-53.936
-53.687
-53.365
-52.978
-52.534
-52.04
-51.504
-50.933
-50.333
-49.711
-49.074
-48.426
-47.775
-47.126
-46.484
-45.854
-45.242
-44.652
-44.089
-43.557
-43.062
-42.608
-42.199
-41.838
-41.529
-41.277
-41.083
-40.951
-40.884
-40.883
-40.952
-41.092
-41.306
-41.596
-41.963
-42.407
-42.931
-43.534
-44.216
-44.978
-45.817
-46.733
-47.725
-48.789
-49.926
-51.131
-52.4
-53.729
-55.114
-56.548
-58.025
-59.537
-61.076
-62.633
-64.201
-65.771
-67.336
-68.888
-70.416
-71.912
-73.367
-74.774
-76.122
-77.401
-78.602
-79.716
-80.736
-81.657
-82.472
-83.177
-83.768
-84.241
-84.595
-84.828
-84.938
-84.922
-84.779
-84.509
-84.117
-83.605
-82.981
-82.251
-81.427
-80.521
-79.549
-78.522
-77.45
-76.341
-75.206
-74.053
-72.891
-71.725
-70.563
-69.412
-68.284
-67.194
-66.152
-65.163
-64.233
-63.362
-62.556
-61.818
-61.149
-60.542
-60
-59.532
-59.159
-58.913
-58.809
-58.854
-59.046
-59.387
-59.878
-60.509
-61.24
-62.011
-62.755
-63.426
-64.013
-64.513
-64.897
-65.123
-65.134
-64.883
-64.37
-63.593
-62.515
-61.069
-59.201
-56.942
-54.419
-51.837
-49.413
-47.262
-45.495
-44.318
-43.839
-44.042
-44.765
-45.497
-45.658
-44.969
-43.097
-39.661
-34.828
-28.975
-22.872
-18.219
-16.483
-18.554
-25.57
-38.268
-56.017
-77.564
-100.427
-120.293
-133.381
-136.605
-126.371
-99.629
-55.262
6.417
83.325
168.898
256.481
342.187
419.527
485.473
538.563
569.45
572.685
543.758
478.068
385.463
276.731
162.142
54.97
-41.606
-125.14
-191.477
-240.71
-271.025
-281.63
-275.503
-256.124
-227.538
-194.9
-162.317
-131.52
-103.663
-79.5
-59.054
-42.502
-29.805
-19.728
-11.283
-5.069
-1.469
-0.595
-2.337
-5.489
-9.124
-13.208
-17.377
-20.596
-22.184
-21.687
-19.165
-15.667
-11.842
-7.767
-3.71
0.01
3.198
5.672
7.607
9.626
12.078
15.049
18.602
22.655
27.164
32.147
37.492
43.003
48.531
53.967
59.276
64.499
69.645
74.696
79.64
84.452
89.135
93.705
98.163
102.501
106.716
110.8
114.755
118.589
122.304
125.904
129.387
132.743
135.965
139.045
141.976
144.756
147.378
149.827
152.093
154.168
156.045
157.72
159.189
160.444
161.482
162.296
162.884
163.238
163.355
163.225
162.843
162.203
161.298
160.127
158.687
156.976
154.994
152.742
150.221
147.434
144.384
141.075
137.512
133.699
129.645
125.356
120.843
116.116
111.186
106.064
100.763
95.297
89.679
83.924
78.046
72.061
65.985
59.834
53.627
47.38
41.114
34.846
28.596
22.382
16.222
10.136
4.14
-1.749
-7.514
-13.14
-18.611
-23.915
-29.039
-33.97
-38.697
-43.212
-47.506
-51.572
-55.404
-58.998
-62.35
-65.457
-68.319
-70.936
-73.308
-75.437
-77.326
-78.98
-80.401
-81.597
-82.574
-83.338
-83.899
-84.266
-84.447
-84.452
-84.293
-83.981
-83.526
-82.94
-82.234
-81.421
-80.511
-79.517
-78.449
-77.321
-76.142
-74.923
-73.677
-72.412
-71.139
-69.867
-68.604
-67.36
-66.142
-64.958
-63.816
-62.721
-61.682
-60.705
-59.796
-58.961
-58.204
-57.531
-56.945
-56.449
-56.046
-55.739
-55.528
-55.416
-55.403
-55.489
-55.676
-55.962
-56.345
-56.824
-57.396
-58.057
-58.802
-59.626
-60.523
-61.487
-62.512
-63.591
-64.719
-65.89
-67.095
-68.329
-69.584
-70.849
-72.118
-73.378
-74.622
-75.837
-77.016
-78.149
-79.229
-80.248
-81.198
-82.073
-82.867
-83.571
-84.181
-84.69
-85.09
-85.378
-85.551
-85.608
-85.548
-85.373
-85.086
-84.694
-84.207
-83.635
-82.983
-82.26
-81.472
-80.626
-79.729
-78.783
-77.793
-76.765
-75.707
-74.635
-73.568
-72.522
-71.512
-70.55
-69.646
-68.808
-68.046
-67.361
-66.743
-66.196
-65.723
-65.349
-65.111
-65.031
-65.114
-65.364
-65.761
-66.281
-66.893
-67.533
-68.129
-68.631
-68.998
-69.226
-69.344
-69.367
-69.301
-69.134
-68.815
-68.316
-67.625
-66.72
-65.624
-64.383
-63.082
-61.871
-60.907
-60.309
-60.189
-60.626
-61.639
-63.208
-65.231
-67.63
-70.458
-73.68
-77.164
-80.586
-83.318
-84.933
-85.275
-84.168
-81.402
-76.844
-70.539
-63.243
-56.572
-51.695
-48.933
-47.936
-47.854
-48.056
-47.687
-44.73
-35.934
-18.295
9.652
47.457
93.52
146.436
204.071
262.794
317.349
361.566
390.694
402.298
395.03
367.866
321.397
257.877
181.519
98.781
15.654
-63.092
-132.678
-189.002
-229.82
-254.147
-262.721
-258.517
-244.547
-223.874
-200.48
-177.636
-157.37
-141.103
-129.119
-120.638
-115.045
-111.329
-107.768
-103.259
-97.246
-89.489
-80.419
-70.627
-60.494
-50.6
-41.675
-34.136
-28.198
-23.861
-20.83
-18.832
-17.626
-16.934
-16.492
-16.048
-15.42
-14.501
-13.217
-11.523
-9.388
-6.767
-3.638
-0.017
4.079
8.612
13.515
18.738
24.212
29.856
35.598
41.353
47.056
52.672
58.169
63.527
68.742
73.799
78.694
83.44
88.041
92.5
96.826
101.016
105.073
109.006
112.825
116.538
120.152
123.663
127.067
130.359
133.529
136.57
139.469
142.212
144.785
147.181
149.394
151.415
153.24
154.86
156.267
157.456
158.419
159.149
159.636
159.872
159.851
159.566
159.013
158.188
157.087
155.71
154.054
152.12
149.909
147.425
144.669
141.645
138.36
134.82
131.032
127.008
122.755
118.285
113.61
108.741
103.692
98.475
93.105
87.594
81.96
76.215
70.378
64.463
58.489
52.471
46.428
40.377
34.336
28.323
22.355
16.448
10.621
4.888
-0.734
-6.232
-11.591
-16.797
-21.84
-26.707
-31.389
-35.876
-40.16
-44.234
-48.091
-51.726
-55.134
-58.312
-61.256
-63.965
-66.437
-68.672
-70.672
-72.436
-73.968
-75.271
-76.347
-77.203
-77.842
-78.272
-78.499
-78.53
-78.374
-78.04
-77.536
-76.873
-76.059
-75.106
-74.025
-72.824
-71.516
-70.111
-68.62
-67.054
-65.424
-63.741
-62.016
-60.26
-58.483
-56.695
-54.908
-53.13
-51.373
-49.645
-47.958
-46.32
-44.741
-43.231
-41.798
-40.451
-39.197
-38.045
-37.001
-36.07
-35.26
-34.574
-34.019
-33.597
-33.312
-33.167
-33.163
-33.302
-33.585
-34.009
-34.573
-35.274
-36.109
-37.075
-38.167
-39.38
-40.708
-42.147
-43.689
-45.328
-47.057
-48.864
-50.741
-52.678
-54.662
-56.683
-58.727
-60.782
-62.834
-64.871
-66.881
-68.851
-70.769
-72.622
-74.395
-76.077
-77.656
-79.122
-80.462
-81.666
-82.728
-83.642
-84.409
-85.025
-85.491
-85.805
-85.97
-85.987
-85.858
-85.579
-85.148
-84.563
-83.825
-82.939
-81.914
-80.756
-79.476
-78.09
-76.611
-75.055
-73.435
-71.76
-70.031
-68.259
-66.461
-64.653
-62.868
-61.131
-59.456
-57.866
-56.372
-54.969
-53.646
-52.367
-51.084
-49.764
-48.375
-46.889
-45.295
-43.564
-41.68
-39.646
-37.444
-35.065
-32.522
-29.812
-26.964
-24.086
-21.268
-18.629
-16.324
-14.432
-13.07
-12.401
-12.54
-13.635
-15.8
-19.024
-23.361
-28.922
-35.603
-43.218
-51.397
-59.395
-66.63
-72.692
-76.962
-78.999
-78.796
-76.498
-72.752
-68.822
-65.593
-63.739
-64.199
-67.234
-72.152
-77.743
-81.897
-81.741
-74.824
-58.948
-31.427
9.697
64.539
131.809
208.98
290.334
370.225
445.295
508.89
558.66
594.164
607.741
597.752
559.178
484.432
380.058
250.186
106.861
-27.658
-141.915
-222.289
-264.559
-280.608
-278.115
-267.372
-254.512
-235.197
-209.202
-178.162
-144.924
-115.574
-92.9
-76.672
-66.022
-59.164
-54.46
-50.623
-46.201
-40.303
-32.818
-24.073
-14.673
-5.165
3.98
12.209
18.958
23.946
27.219
29.022
29.718
29.641
29.04
28.2
27.448
27.025
27.082
27.688
28.837
30.524
32.769
35.576
38.918
42.753
47.016
51.649
56.607
61.83
67.249
72.784
78.342
83.856
89.288
94.612
99.816
104.894
109.835
114.64
119.326
123.902
128.376
132.749
137.017
141.178
145.239
149.203
153.079
156.863
160.549
164.128
167.59
170.924
174.114
177.143
179.989
182.633
185.062
187.261
189.217
190.919
192.353
193.506
194.369
194.932
195.186
195.12
194.726
193.996
192.928
191.519
189.768
187.674
185.24
182.471
179.371
175.948
172.21
168.166
163.826
159.204
154.312
149.166
143.781
138.174
132.364
126.368
120.209
113.906
107.48
100.954
94.349
87.689
80.994
74.289
67.595
60.933
54.325
47.792
41.354
35.03
28.838
22.796
16.919
11.221
5.716
0.414
-4.672
-9.535
-14.167
-18.56
-22.71
-26.611
-30.261
-33.659
-36.802
-39.693
-42.332
-44.722
-46.867
-48.772
-50.442
-51.885
-53.107
-54.117
-54.923
-55.536
-55.965
-56.219
-56.311
-56.25
-56.047
-55.712
-55.258
-54.692
-54.027
-53.272
-52.437
-51.53
-50.562
-49.54
-48.475
-47.373
-46.244
-45.094
-43.931
-42.763
-41.595
-40.435
-39.287
-38.159
-37.056
-35.982
-34.943
-33.944
-32.988
-32.079
-31.221
-30.417
-29.669
-28.98
-28.351
-27.784
-27.28
-26.841
-26.467
-26.16
-25.921
-25.75
-25.647
-25.612
-25.645
-25.744
-25.908
-26.136
-26.426
-26.777
-27.187
-27.654
-28.175
-28.749
-29.373
-30.043
-30.755
-31.505
-32.288
-33.098
-33.931
-34.779
-35.636
-36.498
-37.359
-38.213
-39.055
-39.878
-40.678
-41.448
-42.18
-42.868
-43.505
-44.085
-44.6
-45.049
-45.426
-45.729
-45.956
-46.106
-46.175
-46.166
-46.075
-45.901
-45.644
-45.303
-44.878
-44.373
-43.792
-43.14
-42.424
-41.655
-40.842
-39.999
-39.138
-38.268
-37.399
-36.537
-35.692
-34.87
-34.078
-33.325
-32.619
-31.973
-31.399
-30.909
-30.514
-30.221
-30.032
-29.946
-29.961
-30.075
-30.281
-30.575
-30.961
-31.45
-32.06
-32.814
-33.727
-34.809
-36.059
-37.47
-39.017
-40.659
-42.35
-44.044
-45.701
-47.303
-48.841
-50.311
-51.703
-52.999
-54.154
-55.119
-55.838
-56.249
-56.298
-55.926
-55.139
-54.033
-52.72
-51.353
-50.078
-48.951
-48.052
-47.541
-47.4
-47.48
-47.552
-47.127
-45.819
-43.542
-40.041
-34.987
-28.502
-20.869
-12.852
-6.102
-1.89
-0.915
-4.148
-12.18
-24.541
-40.353
-57.523
-72.128
-80.792
-80.909
-69.074
-42.57
-0.837
56.133
125.161
198.449
271.411
341.245
405.78
467.691
521.899
555.709
557.735
515.305
429.912
318.201
196.487
82.724
-14.469
-97.869
-166.735
-220.288
-257.392
-274.038
-270.828
-251.767
-220.65
-182.538
-142.964
-106.169
-75.129
-51.544
-35.461
-25.937
-21.956
-22.152
-24.402
-26.632
-27.59
-26.75
-24.296
-20.822
-16.787
-12.59
-8.853
-6.193
-4.885
-4.92
-6.002
-7.66
-9.541
-11.39
-12.998
